# physionet r-r rhythm segments, distilled
# source PhysioNet afdb / nsrdb / mitdb, ODC-BY 1.0
# class AfibMachine
# segment_beats 256
# selection every 31th of 1869 segments in this class
# columns record start_beat premature_fraction rr_ms...
# lead chest, ambulatory Holter ECG - NOT wrist PPG
00735 3072 0.0000 520 472 748 560 440 540 952 588 900 480 804 456 484 668 664 580 852 808 668 508 684 1172 744 700 768 836 1124 516 600 736 740 536 576 812 816 808 800 652 752 652 660 556 872 784 912 632 668 684 860 796 812 608 880 512 800 676 824 1076 768 780 860 988 628 1072 880 992 1032 544 688 980 688 644 576 640 600 1124 736 532 608 664 1104 584 936 864 904 804 960 752 648 792 620 892 608 692 976 956 596 548 728 548 1076 928 736 904 584 768 692 1124 1004 1008 912 968 1188 1024 712 844 708 1048 716 980 756 964 840 552 656 612 952 908 1444 780 1748 672 596 508 756 896 744 980 932 920 752 656 688 888 992 1056 672 864 784 716 812 888 548 500 532 1044 588 968 584 772 976 960 1152 668 896 564 712 720 728 1112 688 860 720 832 788 916 936 864 1100 664 780 772 628 1172 812 708 660 924 1016 928 1848 696 1032 908 744 848 644 632 980 604 944 816 780 620 976 980 764 812 836 688 620 840 816 884 544 832 792 880 512 752 824 724 804 768 996 492 956 908 600 824 864 712 1232 856 780 588 1240 584 908 872 888 1048 864 808 680 900 972 816 868 616 720 940 796 664 1160 720
03665 23296 0.0000 636 436 708 548 412 440 424 444 468 416 532 460 416 432 564 416 848 552 504 400 652 520 484 536 416 812 564 440 464 556 500 408 788 452 480 716 588 416 624 460 536 492 400 612 640 528 508 416 776 448 524 500 400 748 452 452 532 416 584 476 500 524 424 760 476 508 420 664 676 744 520 412 616 592 500 476 412 636 592 432 564 584 424 508 444 404 568 656 504 580 416 848 612 444 416 460 416 724 644 500 832 644 528 612 408 640 424 696 484 416 652 648 500 556 416 620 476 592 416 568 412 520 476 412 488 472 416 524 432 460 748 488 432 708 440 660 468 400 596 508 572 488 400 736 700 432 760 468 428 408 672 452 464 436 424 488 484 416 700 520 420 708 496 428 416 540 588 432 708 584 600 444 416 736 452 656 568 592 544 424 764 532 436 548 596 596 492 408 556 428 672 552 560 432 584 576 420 716 664 512 528 420 864 428 620 420 624 560 432 468 596 640 600 472 412 660 420 556 592 432 756 700 424 464 708 568 500 592 412 692 580 476 408 720 488 416 804 480 552 444 412 604 640 484 704 520 528 556 476 408 612 696 692 536 460 408
04746 11008 0.0000 656 680 500 684 888 768 776 852 616 716 552 944 684 652 904 504 468 624 672 780 616 932 608 756 888 744 644 740 580 708 824 800 952 564 628 688 864 708 684 596 652 772 828 692 904 772 496 572 472 728 752 464 1084 772 624 748 780 424 716 592 608 760 756 752 744 788 612 1084 752 632 544 416 680 684 780 644 508 864 548 768 720 664 840 472 940 748 472 836 468 916 604 648 820 680 628 852 888 660 668 676 940 904 676 856 824 636 1008 624 820 844 580 628 672 488 676 780 848 500 888 728 652 776 712 700 700 812 536 692 828 592 672 580 704 552 788 756 772 624 576 712 704 588 840 880 792 512 696 556 504 684 740 564 688 720 496 772 728 988 764 564 552 540 780 728 728 544 776 716 756 532 704 540 888 912 800 532 464 684 584 780 596 768 612 680 1000 832 728 900 848 844 1104 604 516 424 724 608 556 704 604 712 564 620 700 536 500 836 616 680 744 680 656 756 764 880 616 716 764 780 696 772 1056 700 580 868 816 628 696 1296 608 1052 644 792 996 1156 696 676 568 712 936 736 540 812 760 496 524 640 692 516 672 816 576 852 636 956 668 656
04746 18944 0.0000 636 1208 572 476 584 568 524 556 476 688 528 640 468 696 556 1056 724 588 608 672 676 652 812 540 892 484 564 848 472 672 840 536 780 564 732 692 484 644 768 544 708 736 604 716 680 528 764 496 428 612 580 444 484 664 600 732 476 764 760 580 664 668 884 600 660 704 872 880 816 824 604 616 464 636 500 588 480 444 516 460 692 576 464 452 516 556 512 652 800 660 536 712 764 1000 720 752 560 1124 616 544 772 756 904 572 692 688 596 816 676 744 780 500 688 700 808 732 516 728 660 596 684 632 604 496 1092 468 616 616 724 640 536 560 536 792 1036 656 676 808 596 484 596 872 672 808 612 532 524 716 784 768 1020 684 532 536 780 696 872 612 652 440 792 752 664 652 456 432 516 652 828 684 784 560 556 768 548 724 744 564 1024 732 508 548 908 632 580 980 684 704 544 1160 912 812 576 976 440 440 624 612 896 680 752 740 772 668 472 704 404 632 732 568 616 820 680 576 508 696 460 708 444 764 760 772 552 536 792 480 632 520 584 532 732 740 556 764 516 664 740 972 744 520 744 584 424 548 764 748 568 828 824 616 736 768 588 724 652 824
04746 26880 0.0000 496 632 600 504 808 640 840 608 716 808 772 520 600 748 780 788 804 764 728 948 816 616 524 920 856 880 572 780 760 644 772 404 536 676 452 424 672 736 604 716 464 796 784 484 744 800 928 596 736 756 800 700 616 796 644 812 1156 444 576 688 816 820 732 964 508 908 456 424 908 848 856 760 724 480 768 580 572 772 564 444 536 868 748 844 608 564 628 792 704 828 752 1144 760 816 692 480 728 460 800 668 480 536 624 436 812 816 796 668 564 444 716 460 448 460 624 712 744 876 616 668 588 740 812 536 572 520 780 680 1100 676 720 668 812 396 760 652 752 780 856 632 752 656 712 788 800 736 736 808 808 684 676 432 576 564 460 448 668 448 648 668 752 828 840 1224 620 752 1008 536 444 600 508 704 776 820 696 796 692 800 816 680 1048 608 740 620 772 596 664 752 480 744 868 620 692 768 904 728 828 516 624 424 552 712 528 648 948 672 796 840 640 772 768 828 708 820 764 724 1072 756 1112 844 932 920 720 564 692 720 468 604 820 724 768 736 736 804 612 788 860 732 916 904 820 800 676 688 796 580 684 600 736 772 836 476 748 808 532 816
04746 35072 0.0000 464 688 716 456 640 452 792 604 728 684 592 812 784 856 868 852 492 812 772 452 720 468 436 788 908 712 556 732 780 624 472 692 508 460 716 648 468 524 556 496 788 460 556 700 660 612 568 564 724 580 560 524 720 452 664 556 748 452 644 428 420 596 612 712 640 740 792 740 632 668 704 500 680 636 428 416 512 796 684 416 648 444 652 460 752 1120 620 396 584 484 688 444 584 580 496 740 532 604 572 580 784 744 472 580 764 792 800 668 808 900 480 568 624 436 756 544 668 752 584 776 448 548 528 736 436 680 436 456 412 404 560 592 484 524 720 704 616 556 632 680 540 648 728 448 784 464 584 536 504 460 448 576 772 512 552 708 860 580 632 508 408 668 704 704 468 768 796 752 760 452 720 692 520 516 780 504 672 788 848 472 1064 468 684 756 796 908 736 496 520 900 668 436 520 780 456 448 752 536 512 460 412 388 712 428 448 620 588 468 436 764 560 460 492 604 652 760 804 748 776 608 504 396 656 620 712 760 632 684 708 644 500 752 508 444 404 388 392 620 428 480 628 444 440 640 684 472 924 636 840 1040 468 788 548 608 656 716
04908 23552 0.0000 464 440 324 628 496 508 604 500 440 392 392 628 692 412 860 688 796 608 504 404 548 656 776 596 688 564 408 364 604 500 496 516 628 512 500 488 616 696 688 588 636 500 608 484 624 472 724 664 428 516 572 504 732 708 436 488 676 764 448 544 604 516 648 504 472 552 420 536 524 472 412 620 592 600 636 512 472 432 540 628 460 696 480 548 584 580 444 360 608 572 432 564 436 628 488 368 668 440 484 416 436 660 552 396 624 368 672 676 544 428 396 888 912 504 500 556 372 404 604 480 436 472 456 624 608 548 732 708 724 580 392 492 552 520 424 728 516 392 472 448 440 424 580 432 552 868 508 492 428 484 580 492 792 488 588 488 396 680 652 604 588 468 500 440 384 676 680 484 588 556 416 420 652 516 680 456 424 584 528 532 488 444 848 512 504 516 612 444 380 636 380 356 528 412 596 676 432 628 480 424 396 460 416 536 580 484 692 476 508 448 588 444 764 568 604 508 532 556 504 460 752 592 388 672 576 404 640 512 484 436 520 636 456 452 488 604 624 392 348 672 720 680 528 372 752 556 472 464 352 644 516 464 824 440 540 592
04936 14080 0.0000 488 460 848 464 844 488 828 500 752 552 460 820 468 796 548 452 824 516 784 472 456 468 452 444 440 500 484 768 492 468 488 824 896 904 712 628 892 492 844 476 884 816 560 872 888 468 884 480 860 476 500 824 468 884 492 816 476 872 476 764 556 864 864 828 520 852 524 800 768 544 864 472 816 484 856 836 912 860 856 708 612 756 588 840 464 844 800 580 832 752 572 452 456 464 496 728 544 448 456 464 440 464 468 464 900 736 604 772 580 872 556 740 532 712 656 688 648 892 884 912 904 548 540 724 200 1060 892 868 924 896 872 464 856 868 480 872 1308 480 840 892 880 868 868 876 872 688 624 864 660 656 876 680 652 844 460 444 868 920 444 448 464 476 416 436 448 464 456 456 440 456 476 464 780 568 824 532 676 668 700 672 820 620 828 696 672 672 680 460 772 600 692 708 860 852 484 772 588 852 548 784 876 784 608 820 888 880 760 572 684 608 872 676 632 868 700 608 860 904 836 472 832 476 844 492 848 732 588 752 572 876 888 692 636 708 640 876 720 624 652 684 676 664 460 880 920 460 444 464 468 696 628 468 468 456 532 780
04936 22272 0.0000 844 560 800 564 852 552 812 564 844 536 476 468 484 788 556 824 552 832 564 836 536 820 1004 920 936 840 928 916 868 852 956 908 828 676 712 912 872 836 684 884 852 800 868 884 896 692 668 752 604 820 960 864 692 612 504 800 556 788 520 852 560 880 924 912 900 896 880 788 632 908 908 640 640 488 532 904 920 744 604 508 820 548 816 572 828 560 696 668 720 620 560 760 572 800 544 820 564 808 588 788 536 884 832 568 788 552 664 656 844 900 560 804 712 680 708 664 800 796 924 928 904 772 952 948 912 860 788 596 856 808 608 824 920 712 664 920 764 596 1036 600 856 1380 520 872 548 848 500 884 820 592 640 628 612 504 536 640 520 576 780 628 756 828 544 820 548 708 628 516 748 628 516 808 560 828 532 860 536 820 548 736 632 812 552 808 536 824 772 800 640 616 732 532 756 608 756 1124 660 540 780 560 784 560 824 540 816 524 816 548 744 832 672 772 904 576 484 496 512 836 524 724 644 748 628 504 864 580 856 944 916 528 864 920 716 708 712 648 920 952 920 840 500 488 492 736 604 536 744 584 536 832 568 768 596 696 636 716
04936 31744 0.0000 864 496 460 856 880 524 896 516 828 504 892 488 868 480 468 892 500 868 860 484 856 496 796 688 760 484 888 496 716 608 476 912 660 716 820 536 804 716 720 688 708 628 692 908 896 900 880 896 904 880 872 884 888 920 880 808 820 556 804 580 820 780 544 792 572 800 564 772 540 844 504 820 532 516 728 556 820 548 780 912 544 828 528 816 876 904 556 492 740 732 628 572 824 524 736 636 472 628 668 752 632 552 848 948 816 888 908 892 732 612 692 652 700 648 864 696 676 676 644 884 908 756 568 752 536 824 544 804 864 876 524 840 944 864 868 692 628 892 672 604 528 872 888 912 868 860 488 648 688 584 732 648 508 556 476 472 484 464 464 456 800 560 488 764 468 488 432 528 820 200 260 456 464 784 544 456 456 1056 676 492 468 452 516 476 756 540 488 616 648 552 628 688 908 832 516 840 552 796 532 908 504 844 888 496 784 532 816 560 856 508 784 560 760 564 868 496 856 924 884 780 548 472 824 532 788 980 912 900 596 740 884 508 896 892 480 600 760 916 848 508 468 740 520 524 476 824 512 504 668 676 528 684 640 732 628 904
04936 39936 0.0000 516 884 952 616 668 508 584 720 832 528 772 540 876 444 912 936 616 644 524 792 568 788 544 784 544 844 540 796 520 476 460 792 528 816 512 780 568 808 524 804 520 812 560 752 544 880 896 864 884 864 516 824 884 844 828 936 848 784 528 800 528 788 536 856 672 744 812 776 512 516 716 492 508 792 488 480 1196 892 536 888 472 848 908 916 856 884 484 868 856 1024 700 468 844 892 620 696 840 864 660 640 712 568 476 460 748 748 828 604 596 684 620 920 832 700 624 836 856 860 468 740 504 816 532 772 504 688 560 804 532 752 540 800 508 760 524 788 544 740 524 800 988 780 536 764 496 812 540 788 508 464 648 604 504 824 524 472 784 504 496 756 540 484 792 516 480 908 816 472 664 920 612 504 780 520 792 544 868 480 840 504 1052 732 644 812 480 844 572 628 536 860 900 760 884 492 696 632 472 788 500 796 544 776 672 828 872 828 736 468 840 840 464 652 628 656 612 504 668 592 496 772 540 808 516 768 560 780 520 716 572 476 476 668 600 564 796 500 480 452 476 824 532 656 784 836 464 860 492 792 540 780 572 668 608 500 796 528
05121 12032 0.0000 852 468 672 840 644 516 912 880 792 712 804 608 604 664 644 732 832 536 460 680 636 556 720 640 632 540 1156 704 748 440 664 744 924 812 584 700 648 700 784 704 536 648 688 856 548 956 792 776 872 600 640 564 496 748 992 592 864 1304 800 868 780 816 764 656 864 504 556 652 784 752 800 876 532 656 500 740 492 588 748 584 572 688 560 580 752 512 732 492 696 596 684 636 868 496 652 584 800 788 564 684 816 596 716 792 816 764 1000 856 540 560 684 620 708 592 552 792 544 716 876 588 636 716 632 604 684 704 740 772 680 564 764 556 912 680 604 636 684 960 784 740 608 824 608 776 888 564 596 584 716 616 692 488 512 764 736 756 852 808 524 772 844 796 500 844 804 1076 584 724 476 856 1004 552 548 608 696 688 988 1276 740 760 516 672 776 688 788 712 1160 456 708 792 964 576 560 984 520 540 780 740 684 668 592 816 736 840 856 536 744 628 624 760 732 844 560 440 768 780 812 536 700 728 596 524 712 732 880 580 604 660 540 712 712 820 736 760 924 812 568 728 776 632 628 856 808 552 844 556 852 680 736 780 528 712 676 872 708 640
05121 22016 0.0000 700 716 624 680 456 756 868 556 660 704 656 512 596 656 472 608 664 664 640 708 684 676 836 620 928 804 876 868 740 712 700 664 668 648 544 792 588 700 688 928 772 648 664 704 1032 772 808 792 744 724 956 624 676 972 772 536 668 564 812 516 512 664 1456 612 740 620 684 692 668 676 616 624 628 792 564 608 828 712 824 732 932 792 788 808 568 756 892 732 836 884 684 752 596 804 508 744 816 784 564 588 856 724 964 708 868 772 936 772 868 520 804 668 724 604 748 860 604 600 840 788 812 608 848 640 884 836 564 628 760 792 816 568 1028 940 824 1012 600 716 664 580 824 728 652 756 704 556 708 660 712 584 688 660 712 652 724 664 672 700 704 712 672 708 692 700 700 680 688 700 692 724 568 716 500 568 784 580 828 692 636 656 640 652 796 784 632 788 700 820 792 736 564 628 936 780 788 836 652 900 768 640 876 580 700 736 596 964 644 600 1016 664 644 784 584 552 716 792 764 848 1120 852 620 812 728 608 844 672 924 720 528 608 760 1252 632 756 896 828 1044 528 592 736 828 640 896 988 868 860 504 744 508 784 756 872 880 764 972 608
05121 30208 0.0000 732 528 600 760 640 600 516 612 600 712 756 688 944 584 736 748 660 496 948 652 784 576 772 644 764 796 852 720 544 816 588 772 824 816 680 620 792 856 604 520 760 504 540 616 648 820 696 616 624 724 664 900 820 824 544 644 596 636 572 856 668 612 504 600 884 564 572 528 532 592 944 664 664 628 516 604 648 620 500 740 784 852 848 764 524 604 572 580 708 628 612 572 812 500 648 708 668 760 748 744 748 772 764 732 716 736 800 756 628 500 660 456 648 776 684 636 696 716 656 508 1224 1136 924 824 804 716 724 780 760 672 812 768 732 768 776 772 728 720 764 784 784 716 732 772 792 728 732 752 752 780 776 716 728 752 756 732 748 748 748 728 768 772 444 952 816 804 820 756 724 752 832 700 684 892 736 752 572 668 560 792 752 504 676 680 484 548 536 588 648 656 992 576 920 1004 876 788 756 760 740 740 768 764 704 724 856 684 812 624 552 724 692 664 732 516 732 636 820 956 564 572 1024 640 472 520 720 544 580 548 552 476 508 580 604 668 596 628 688 628 568 556 1004 784 864 808 684 544 728 664 864 736 808 1000 668 760 652 648
05121 38144 0.0000 564 828 656 608 640 568 656 584 564 636 660 640 800 636 940 872 644 624 644 820 756 520 1152 736 616 708 700 916 680 772 664 1280 684 616 588 764 636 512 856 672 520 436 772 860 900 792 632 892 624 700 580 732 536 600 728 716 732 832 1092 832 632 628 600 648 560 716 820 544 660 616 608 556 480 676 608 608 720 684 676 600 592 552 620 784 568 604 612 604 836 892 688 612 480 816 672 744 708 528 808 668 588 1180 504 768 648 700 560 588 536 700 784 512 780 556 736 800 680 764 516 852 760 540 584 764 736 632 636 592 996 604 444 724 768 496 528 736 672 712 608 648 680 532 556 612 796 796 624 632 612 448 820 632 552 676 640 560 496 676 532 692 544 576 628 672 864 604 800 532 592 608 608 548 468 848 664 588 592 544 672 588 648 624 612 648 652 548 684 640 656 636 612 452 508 568 500 620 548 712 560 788 540 660 664 724 528 712 820 628 580 644 616 564 532 528 560 632 616 608 548 648 568 604 460 596 580 588 612 608 580 712 640 556 532 812 664 480 548 760 752 628 568 584 596 572 632 624 596 644 552 904 552 668 824 640 680 704
06426 3840 0.0000 932 588 664 516 544 724 676 728 716 972 1016 572 772 824 976 792 760 1172 668 696 576 688 612 768 804 548 904 516 764 852 680 764 1068 636 676 652 496 696 568 756 864 724 720 928 588 992 952 816 768 580 580 672 816 780 1084 592 956 532 544 752 848 660 520 740 584 548 996 560 900 636 740 1296 672 744 632 1000 620 924 532 500 704 668 748 636 768 692 808 592 852 808 948 544 820 800 540 520 584 940 580 928 876 776 560 808 580 808 864 848 652 688 732 648 508 764 776 524 760 600 608 580 672 1076 564 676 856 696 440 812 632 732 596 948 560 808 580 628 652 664 584 724 1060 552 508 532 780 524 916 540 656 608 804 568 708 688 816 568 676 752 760 604 488 500 624 592 1012 520 612 608 552 724 664 868 880 552 852 748 768 528 636 596 548 712 1048 488 808 676 604 568 496 520 696 848 776 640 572 580 976 752 892 516 636 476 640 504 812 748 496 708 516 784 1084 1000 868 808 544 572 756 720 752 696 676 776 736 1112 828 632 604 684 744 1176 652 716 556 700 528 512 688 592 868 508 552 600 496 836 904 716 792 556 772 904 772 588 512 708 708 664
06426 15616 0.0000 568 548 512 492 840 564 532 736 924 708 728 532 492 920 796 592 876 608 540 648 676 564 500 672 512 480 632 868 548 552 740 588 516 460 504 508 512 772 772 684 728 788 752 884 796 616 604 520 684 524 940 528 720 576 628 916 1160 688 796 776 500 628 952 740 756 808 860 504 720 504 772 724 820 764 588 552 756 668 884 1020 776 700 652 560 800 820 696 632 604 544 812 924 1036 728 720 556 692 512 688 524 680 852 888 540 940 508 740 916 1120 576 540 528 632 520 756 760 740 824 716 824 760 548 748 856 712 832 804 568 812 704 880 904 804 492 884 504 780 516 524 592 888 1016 936 756 676 496 504 944 560 712 1184 784 976 816 784 548 600 736 500 488 960 1100 752 644 484 756 876 636 628 680 492 624 536 532 776 528 712 1084 608 828 656 640 504 716 592 536 576 940 1020 608 612 856 540 492 484 960 580 720 576 508 724 1028 720 508 624 792 772 540 476 648 692 784 732 704 796 664 664 952 756 632 648 580 640 688 752 712 552 620 648 664 992 632 488 684 912 1020 508 536 524 496 540 780 808 516 884 544 856 852 844 700 548 804 672 796 752 528
06426 25088 0.0000 648 768 636 728 448 460 464 680 664 576 676 716 420 400 436 424 512 552 508 1084 760 616 496 376 472 680 472 508 620 504 724 948 604 664 492 716 716 748 828 484 652 472 640 484 824 780 580 464 448 412 428 440 732 808 608 492 488 704 472 472 420 632 480 612 688 680 696 464 828 432 476 640 688 472 668 620 436 412 436 472 712 640 796 1060 656 680 688 640 656 696 512 428 480 604 496 568 508 660 440 476 428 680 484 444 472 556 452 428 448 472 684 712 548 452 456 584 472 624 760 604 592 556 652 540 696 612 436 572 512 528 740 448 584 516 640 448 832 640 692 488 416 508 472 932 648 460 424 712 876 512 996 576 620 420 676 456 720 500 580 476 408 704 548 412 528 608 768 460 800 464 716 944 448 504 524 516 576 568 624 560 452 496 472 452 464 684 672 644 516 616 408 640 660 440 420 688 524 456 484 428 944 484 812 544 944 596 740 556 540 572 416 724 616 608 592 508 400 536 544 432 636 712 560 488 412 616 404 444 412 400 608 536 444 568 676 460 416 424 400 580 440 416 448 380 776 708 392 368 532 460 488 696 488 608 700 504
06426 33280 0.0000 496 880 652 472 600 464 520 688 604 732 556 524 444 512 748 708 692 724 724 416 544 500 792 560 496 604 684 732 608 764 716 460 472 680 472 760 460 616 800 860 464 476 780 708 860 488 428 940 628 512 472 748 708 692 772 628 888 888 820 492 448 692 476 532 696 612 528 524 604 484 512 504 708 740 512 444 628 620 644 432 688 824 868 488 424 584 428 564 756 540 452 592 756 696 684 520 444 652 752 472 448 464 552 468 440 588 628 836 576 552 728 700 584 628 456 500 644 764 796 704 664 636 524 720 516 448 480 608 620 1088 728 564 504 792 716 1032 844 748 916 488 1128 636 540 472 516 624 668 484 488 432 632 804 484 556 552 588 780 460 588 468 472 664 876 504 564 1116 564 820 520 544 612 780 476 524 536 788 720 448 724 604 920 524 488 484 608 504 536 464 456 1056 592 628 544 728 680 560 640 588 484 504 580 552 456 672 680 468 480 480 856 512 692 760 660 516 620 516 936 816 780 740 480 608 652 504 656 808 484 716 952 820 788 684 548 456 512 816 732 728 704 668 884 748 656 652 548 652 828 744 756 528 456 472 836 568 756 572
06426 41472 0.0000 580 648 468 456 652 452 944 600 512 560 848 624 564 500 952 728 816 756 544 708 732 612 628 520 620 468 456 780 484 852 564 512 500 880 692 784 612 892 1108 888 476 428 432 924 660 620 500 768 1024 476 504 812 784 656 504 1012 1060 496 636 664 808 640 672 672 844 460 856 528 648 888 652 492 576 812 636 552 688 600 608 476 764 500 600 576 716 964 628 584 636 800 468 1224 576 668 444 732 500 676 476 464 664 476 444 664 456 672 752 496 648 748 672 536 640 712 484 840 556 716 632 808 636 472 656 564 684 760 712 708 744 892 580 616 656 640 500 588 692 740 784 480 572 844 784 1124 792 532 464 868 848 900 484 556 820 852 496 492 560 512 768 804 588 744 540 684 560 756 776 724 500 964 560 796 604 840 916 1000 656 908 952 504 576 568 468 872 988 760 748 776 1248 660 740 692 516 632 484 808 464 664 644 740 800 776 540 596 700 480 668 508 752 608 900 708 728 776 1328 516 572 536 492 720 672 512 828 712 508 508 616 1052 584 700 512 560 480 684 492 512 476 876 512 1320 916 772 664 708 456 428 636 536 512 900 672 732 524 688 820 776
06426 49408 0.0000 476 708 744 700 880 688 484 560 484 708 924 612 704 720 640 700 668 756 480 548 732 784 532 772 756 544 776 960 748 780 448 448 684 572 480 544 768 620 724 460 688 580 488 908 680 504 500 500 888 916 532 700 740 960 868 740 676 824 540 456 708 504 536 1112 584 692 524 484 488 832 704 520 464 636 500 804 820 904 660 584 620 540 1132 808 804 648 720 1068 724 796 512 660 476 668 608 444 464 836 620 700 708 484 700 724 488 544 612 664 508 420 656 548 664 500 620 472 444 444 540 584 624 676 724 824 704 604 1024 524 464 488 460 536 640 676 680 1024 1056 696 688 708 824 816 620 484 920 516 508 508 812 656 476 652 644 684 896 748 484 440 536 604 784 848 608 676 508 452 460 468 460 592 544 660 476 972 716 856 916 728 820 524 1096 736 448 740 632 812 500 580 484 584 696 540 524 468 496 520 528 1044 524 716 508 668 656 452 704 764 664 472 684 652 1040 920 840 552 1296 724 804 532 472 420 648 464 460 528 468 596 600 608 676 472 848 496 528 752 800 696 540 924 716 812 748 580 764 740 908 524 1344 876 480 436 676 852 904 540 512 732
06995 2304 0.0000 612 676 724 632 952 792 668 896 988 692 648 928 804 780 692 556 584 624 800 736 684 568 872 404 760 816 912 884 712 968 944 756 696 948 712 712 752 748 692 732 780 524 608 1088 556 968 664 696 804 624 616 564 620 776 680 776 664 736 784 772 696 792 524 540 560 696 756 688 724 684 760 544 672 916 608 704 796 696 672 848 808 744 504 884 560 572 852 648 644 784 800 736 568 600 588 600 668 888 636 776 492 956 592 532 632 728 512 604 808 536 660 688 584 552 612 552 764 996 880 644 748 756 820 968 764 992 612 936 544 660 744 724 776 532 516 452 528 804 756 1044 904 636 812 768 888 560 500 628 744 524 580 696 796 780 568 672 756 892 712 684 820 848 872 744 768 756 704 624 664 652 764 760 724 676 704 744 824 824 696 788 680 584 520 668 904 588 896 776 680 576 684 1072 752 892 756 540 660 724 568 744 636 544 548 620 1036 1048 604 728 732 744 764 788 672 584 744 760 1000 624 776 520 872 836 820 612 892 512 948 768 676 748 520 632 964 708 824 720 760 752 728 604 684 552 588 548 692 788 832 632 600 916 568 704 836 796 812 808
06995 38144 0.0000 456 440 456 452 488 788 668 632 476 456 476 492 400 416 448 792 536 796 704 520 380 712 368 476 496 412 428 788 512 392 460 420 460 476 756 660 628 436 436 468 400 852 496 420 460 488 492 468 476 492 488 476 456 468 516 512 432 556 424 480 500 508 524 940 688 776 672 544 1048 696 1068 764 692 528 580 520 584 716 512 592 556 656 668 760 508 812 536 704 776 676 680 848 628 928 788 728 468 404 376 396 656 548 716 500 668 664 476 904 556 384 836 632 484 528 776 616 508 672 476 552 644 572 704 464 424 376 552 728 748 732 516 472 700 720 532 500 700 808 680 656 608 696 752 708 700 516 680 492 432 696 476 440 404 452 772 700 636 504 700 556 668 688 576 628 600 672 512 692 788 504 652 480 392 380 460 452 420 648 780 480 748 820 532 668 556 520 616 612 484 724 460 396 404 700 796 764 732 684 628 688 604 780 552 392 944 676 616 504 744 632 676 808 584 416 436 624 480 476 636 512 656 472 516 476 408 376 388 384 396 796 508 592 772 604 492 524 480 416 528 472 944 524 580 780 684 760 532 776 924 804 588 904 852 496 736 716
06995 46080 0.0000 804 684 592 548 468 656 580 556 476 636 604 640 460 588 592 480 476 452 388 584 700 648 752 508 428 572 724 648 456 428 388 608 712 692 452 652 724 508 568 552 752 472 504 616 728 692 636 836 648 684 908 612 660 708 664 232 316 1300 644 604 556 584 564 660 624 644 620 524 628 684 700 720 620 484 708 456 440 400 368 612 492 636 460 428 376 352 428 348 752 476 716 472 420 372 444 656 488 432 628 536 436 732 812 404 576 724 572 600 584 1016 600 664 704 680 680 548 612 664 488 564 436 536 696 652 620 452 644 736 720 616 516 752 708 488 464 600 600 644 440 456 516 700 740 544 384 768 440 720 480 548 452 452 628 584 660 488 440 340 348 356 412 392 676 684 480 664 596 512 576 468 544 460 768 592 488 608 728 772 484 420 392 656 644 456 660 740 636 440 780 640 764 708 492 696 656 444 436 612 492 760 732 740 592 652 612 408 668 696 484 680 656 724 764 516 668 700 736 572 544 448 652 876 752 728 520 372 760 728 760 480 928 628 452 824 520 588 468 684 760 480 640 636 620 444 628 584 464 756 860 564 460 592 660 560 632 688
06995 54016 0.0000 708 644 680 772 520 636 684 488 716 740 540 364 720 604 728 664 680 456 560 464 436 848 572 696 540 472 676 440 380 392 344 368 776 416 752 744 336 808 648 488 356 360 368 388 800 592 716 652 780 740 732 768 504 612 480 396 360 352 368 800 364 428 748 388 376 392 820 396 408 784 384 376 404 452 720 380 412 460 580 516 668 748 680 700 484 660 724 700 464 604 716 464 656 668 544 648 464 500 484 524 656 804 652 480 632 660 648 508 668 464 568 788 596 664 644 520 572 432 648 440 404 356 588 432 420 792 476 600 688 460 524 472 492 420 356 588 444 416 396 764 388 428 788 636 468 504 496 696 600 668 728 764 448 468 460 384 540 704 452 424 376 396 444 396 540 500 676 464 768 540 692 752 672 712 520 708 464 812 616 716 548 600 504 676 708 744 752 512 600 492 436 596 488 620 468 748 552 492 388 956 716 868 696 528 360 756 476 444 436 524 472 440 464 616 464 452 376 376 384 728 472 932 796 556 520 812 516 704 472 660 472 420 380 404 384 440 392 456 544 456 392 396 416 428 916 580 688 684 556 724 876 564 496 776 488 776
07162 6912 0.0000 1176 760 716 1020 508 832 808 1080 484 900 524 892 716 728 1368 744 700 740 664 748 944 532 780 512 1168 1164 512 868 1020 700 812 928 1076 536 1024 764 1088 852 1100 668 1292 1212 1004 772 1172 1124 980 976 792 1112 1088 1068 1160 1256 1064 764 696 732 1096 832 716 820 904 1052 536 944 520 912 816 708 964 516 1144 1136 512 840 1016 516 984 980 1216 940 776 516 792 524 992 996 540 1024 944 1216 724 864 904 748 988 888 760 924 932 640 648 1172 964 1020 1036 964 1452 904 1556 864 788 1024 1040 960 652 756 744 1068 1148 536 896 1184 536 960 728 796 852 848 1236 704 604 1076 944 824 712 748 772 1072 512 1188 1152 508 500 1072 1168 512 1092 740 876 516 1240 472 1016 1020 748 936 516 1232 1048 860 740 688 1496 648 1044 708 1164 652 696 792 1148 1268 1080 860 932 1076 1380 896 1008 936 984 732 936 672 896 1220 704 660 1000 748 696 1088 1164 520 904 888 820 872 1116 528 1100 1040 1140 504 1148 804 820 972 536 1444 804 716 1024 484 1036 1048 532 824 720 1052 668 844 532 984 868 744 1124 900 1028 524 1260 976 1040 800 852 936 872 1068 1068 960 1016 1340 1208 732 860 1084 956 1196 816 1020 976 776 820 796
07162 14848 0.0000 976 644 652 768 896 588 856 1000 616 984 580 784 592 884 1380 896 656 660 1128 1484 1440 692 840 688 660 952 1312 1204 936 988 1192 1144 1120 1332 828 764 1204 876 1392 800 740 956 1024 884 764 628 1164 808 1068 888 1244 1024 1016 1196 900 1512 900 796 800 644 1024 684 800 832 1028 1116 752 732 1148 1196 888 836 1500 1232 1116 792 1100 1024 804 1064 916 808 756 1176 744 628 672 684 676 1016 836 984 1068 924 968 808 1148 772 1020 1156 792 1148 920 676 920 1108 416 996 1552 996 760 876 960 1156 892 760 928 980 704 1180 916 956 940 836 1140 752 900 752 1176 736 1208 916 672 1112 1172 1044 952 804 724 1252 1296 1088 912 900 676 1092 868 764 828 972 612 624 608 1268 1100 756 876 1064 1316 724 968 796 700 944 860 836 776 616 656 672 1008 848 752 864 1412 692 736 960 724 952 880 996 660 764 1220 1268 1500 1116 1164 908 752 980 916 1052 696 824 836 672 664 900 1188 1080 960 692 612 708 856 772 1040 1204 808 952 1124 716 1068 756 988 924 928 996 424 1028 1356 1012 648 960 980 724 624 1036 940 1040 792 872 920 1080 1284 1176 876 924 988 1136 1032 1104 944 696 924 892 832 816 1260 828 740 1356 1160 1576
07162 22784 0.0000 952 780 1020 1516 912 1152 944 760 1288 1284 1260 972 1472 856 888 964 716 1176 744 828 1040 1048 984 796 1224 1124 1224 776 1084 996 936 804 984 1000 1208 784 960 1108 1216 1164 728 832 864 1332 1024 720 1012 936 884 868 700 736 1112 1076 860 696 1156 808 1164 1084 1064 1064 1176 1080 1264 700 1044 1044 1028 972 812 980 696 756 932 912 1128 1264 908 800 768 724 1164 928 1100 780 776 1308 1572 1116 688 724 684 1236 688 740 1096 804 1512 1380 1664 756 780 852 1552 1084 964 972 1096 1048 1144 928 1504 868 1012 1092 744 1192 748 692 1204 760 912 748 1428 1068 752 876 828 872 964 1532 796 684 808 1196 816 900 776 1004 1368 1080 780 1172 1088 904 1172 1060 1248 1296 1108 888 924 868 760 924 944 1192 1192 928 908 760 896 720 716 784 1288 1600 832 1004 864 900 872 912 944 468 1512 796 968 1160 1312 808 1124 1044 696 728 1020 924 900 744 1016 800 800 1088 1052 868 1052 784 748 1184 892 900 672 744 1012 1392 944 944 872 1388 964 656 1032 1244 1448 1548 828 1224 808 956 764 1128 972 1136 1032 768 1412 748 696 1004 940 1036 1076 1352 1280 792 1344 1000 820 732 724 1256 924 728 1044 760 816 688 984 1204 1156 1024 984 1308 1292 868
07162 30720 0.0000 732 976 864 668 676 760 868 712 1500 1424 1440 828 1288 844 1460 864 1108 744 764 1276 816 1100 772 660 744 1144 720 1008 952 888 808 1072 972 1164 756 1356 1236 1236 1364 1408 1232 712 1328 800 668 776 1128 1032 956 1012 1248 1256 1132 1036 992 1140 836 1144 864 960 884 856 1304 1028 908 1064 872 704 764 736 632 756 964 1088 728 788 676 756 800 1036 768 908 840 636 612 956 852 792 1240 940 696 760 760 616 1144 1400 1592 1708 1008 716 1188 1012 1056 700 1220 1216 1644 1060 732 724 928 1108 748 844 972 752 1112 856 880 1212 696 1280 1100 1040 1028 1008 1228 1256 1088 732 1168 748 800 900 1116 792 712 860 1084 956 892 932 688 1048 696 732 1036 724 716 824 1324 1200 1056 716 620 948 816 1596 432 1208 748 1596 1452 956 780 804 1004 1256 1424 1016 1416 1288 696 684 1588 1064 1064 920 944 1112 972 1104 960 1068 1396 1004 1008 1072 1048 648 1556 1240 976 1208 956 808 1000 1156 1204 644 712 968 1060 916 756 1024 748 696 976 1168 772 1172 1596 1108 900 1356 1148 792 712 1396 436 1472 852 704 1240 856 1036 700 688 1204 724 932 1572 1216 1200 800 752 1204 1140 704 1072 1092 1008 1204 1016 924 1092 632 1236 1508 724 1096 872 956 984 1012
07162 38656 0.0000 724 1084 552 1116 1028 1068 724 1072 828 1008 804 884 1188 1164 948 920 728 656 864 1012 992 1368 852 1344 1108 1216 1032 1208 1264 896 1444 1184 896 812 1236 820 776 688 1632 876 1060 964 944 1188 1352 1020 688 940 720 1204 812 1048 664 636 940 940 920 732 724 1244 964 1280 1440 1112 764 812 916 920 676 1128 904 1060 1012 772 1108 1216 1012 996 692 932 1168 1548 976 1400 844 1212 1032 1416 1024 836 1080 1180 724 1340 1004 1228 1036 732 1100 1152 636 1232 804 848 1592 896 1104 820 992 1432 780 1292 948 1036 1304 748 868 808 680 1640 1276 1036 852 732 852 1036 1076 928 1036 1292 1300 748 812 936 920 764 1024 896 732 736 1464 888 788 1316 1484 1392 808 1000 1356 708 1020 1464 812 1272 892 668 904 824 1020 664 1088 808 1176 1256 1212 860 752 1168 1264 1116 864 1224 856 1148 900 1268 1396 1004 1020 940 716 736 992 960 956 1392 1148 896 928 864 892 1128 1100 820 652 1160 1292 880 1036 1000 796 1028 1200 1008 1196 960 1036 928 908 668 900 1124 1156 1080 1064 944 1256 1284 748 952 956 1004 1020 832 976 752 844 740 768 1376 964 1204 1140 760 1264 1008 872 896 1272 996 1352 724 1108 920 860 604 1348 1044 856 688 908 1112 732 1204 1204 1216
07859 7424 0.0000 636 548 536 532 640 592 572 688 628 536 560 756 676 556 584 680 508 540 856 660 616 540 644 584 544 540 608 612 456 460 712 668 804 608 620 584 632 632 604 620 628 632 736 592 564 552 760 676 820 572 616 548 624 596 680 464 516 924 676 356 544 780 572 704 644 692 592 596 676 632 588 664 652 640 652 724 648 588 572 680 656 636 628 604 504 676 608 768 532 624 552 568 516 776 596 468 544 648 584 580 580 576 664 652 536 528 648 604 652 756 560 568 652 688 672 652 560 544 748 532 668 604 676 664 700 640 568 600 648 616 640 544 540 516 812 620 880 672 692 616 652 660 684 608 648 644 620 600 616 560 484 624 624 576 572 640 780 624 680 624 524 744 652 628 596 448 680 600 604 796 724 576 592 604 620 724 620 620 664 528 552 768 620 668 596 664 588 600 648 772 584 544 568 616 632 600 708 556 624 556 608 740 576 752 616 412 864 664 612 572 572 600 624 600 600 584 616 640 700 544 604 568 536 600 572 540 604 692 512 704 648 652 604 628 628 636 564 696 640 608 656 764 636 596 552 640 664 684 700 880 648 616 572 584 576 436
07859 15360 0.0000 536 496 552 684 596 592 680 516 552 740 716 576 688 684 588 668 692 656 644 600 608 560 548 604 556 596 628 608 700 604 580 748 636 632 576 560 652 684 600 612 620 564 592 640 584 512 588 756 516 572 560 884 584 668 536 560 576 640 644 692 612 592 616 632 580 564 692 584 536 564 712 644 572 500 616 620 568 716 620 768 584 596 560 520 620 688 776 604 568 516 636 556 632 536 604 628 496 700 664 640 672 748 628 632 552 672 700 668 504 1068 600 684 576 768 608 552 768 656 616 632 644 684 640 608 688 636 680 652 592 532 556 576 556 544 612 544 628 632 616 624 552 584 648 544 696 656 672 528 680 608 532 788 616 528 568 604 752 840 580 624 688 748 740 576 568 700 692 596 732 716 588 552 380 716 612 660 636 728 620 648 636 556 536 496 696 728 576 624 528 572 660 604 640 624 596 580 508 684 512 492 724 572 636 640 632 572 604 720 580 604 604 564 576 676 492 584 648 548 552 636 624 808 564 576 620 632 544 612 520 584 664 616 660 528 532 552 520 664 596 612 564 640 608 528 672 512 652 560 644 684 544 560 612 608 744 640
07859 23296 0.0000 596 628 608 548 572 548 596 516 532 600 584 576 492 688 528 660 656 648 596 560 500 540 632 584 564 600 608 544 540 556 696 568 588 540 576 744 624 664 584 532 584 564 636 588 712 448 684 628 584 604 584 508 528 528 700 492 676 572 616 556 652 572 736 568 472 608 600 556 480 580 560 500 620 636 552 508 592 608 580 592 596 488 596 624 592 460 612 628 540 524 620 512 504 604 588 556 604 584 460 580 620 524 608 672 520 784 628 540 516 556 636 644 516 988 680 692 536 580 704 648 508 504 580 536 560 516 608 616 576 636 560 628 592 584 592 552 624 572 612 624 544 588 592 684 572 560 596 580 540 728 672 576 596 572 568 608 536 608 724 524 600 604 544 672 492 560 840 620 600 484 596 520 568 624 640 628 628 616 560 604 704 536 520 572 648 532 492 716 632 524 596 528 716 520 568 496 536 764 548 652 576 704 632 556 524 612 576 600 608 544 676 584 600 644 676 556 544 572 548 496 696 636 548 560 584 692 640 596 644 628 588 600 628 608 600 536 676 488 560 504 528 568 596 544 712 544 572 528 508 572 564 580 580 728 556 724
07859 31232 0.0000 608 528 488 648 532 572 544 500 556 592 656 588 540 620 632 668 504 1032 604 576 616 580 660 624 696 580 572 552 532 552 520 556 456 608 644 524 572 620 648 548 596 668 552 556 552 572 512 648 556 588 652 540 492 560 552 604 616 636 608 544 520 608 512 580 600 500 528 496 580 548 608 576 632 524 492 480 552 668 616 628 540 616 572 656 620 592 476 524 796 508 656 648 700 524 652 552 612 588 492 536 608 532 776 628 520 556 672 1032 696 644 548 556 340 680 664 676 556 612 612 668 452 496 748 592 596 496 532 532 548 528 596 592 616 560 600 368 680 620 620 692 504 588 540 460 552 564 660 552 552 576 508 620 480 756 540 592 532 536 692 508 728 524 512 528 564 464 536 368 748 584 608 592 544 628 644 500 568 576 580 580 556 524 572 1228 516 508 504 608 596 624 620 648 560 576 484 536 472 668 592 604 624 712 572 632 488 520 712 520 572 540 636 512 588 500 560 576 512 608 592 564 472 568 648 624 572 540 532 648 556 476 572 708 600 708 576 544 664 672 772 664 596 568 356 708 612 636 572 652 556 572 544 808 584 644 568 636
07859 39168 0.0000 536 656 588 684 628 588 612 592 512 544 636 660 696 616 536 560 572 684 544 516 548 592 588 584 632 824 604 564 612 664 560 508 512 524 660 692 588 528 568 536 576 708 604 628 612 652 608 556 588 696 628 700 584 540 468 756 588 712 520 540 584 588 600 640 504 640 616 572 620 728 648 524 556 612 608 760 608 672 628 568 512 516 456 484 884 644 664 616 576 532 592 688 672 588 608 528 668 680 528 520 716 532 584 532 576 592 628 532 540 680 536 556 668 560 632 620 600 604 588 564 520 648 592 648 532 572 584 660 516 680 512 596 548 588 620 608 600 676 596 576 640 600 704 520 548 504 504 748 484 516 516 864 556 604 528 592 544 620 608 496 760 648 508 564 572 640 768 636 588 604 632 604 564 500 668 556 604 528 512 648 656 544 464 488 788 652 660 576 676 584 488 508 752 520 552 652 616 552 668 612 544 600 644 580 584 632 672 636 632 676 596 644 520 524 572 584 628 532 508 544 532 604 596 668 596 516 532 668 548 668 620 644 1176 640 712 576 484 600 544 560 584 464 640 588 548 580 536 548 588 504 520 528 652 496 720 528
07859 47104 0.0000 584 560 612 564 576 600 624 548 556 800 636 616 560 652 636 776 564 596 608 668 596 636 620 612 620 524 456 772 592 504 668 616 604 640 632 520 544 604 552 568 708 696 592 692 644 632 640 576 672 612 652 624 520 572 744 596 608 700 600 572 560 532 504 676 612 596 548 588 760 560 688 536 608 652 640 644 652 604 712 584 580 664 756 604 596 568 580 536 628 648 728 644 672 644 584 552 700 612 592 572 616 604 896 588 508 692 660 576 548 616 692 664 540 524 696 484 528 728 612 568 636 540 596 568 568 592 616 604 624 580 536 696 708 632 644 556 584 520 736 640 588 576 556 668 704 660 584 516 580 616 532 600 504 504 816 584 704 668 708 536 588 648 544 488 820 672 636 652 628 652 740 564 476 608 560 616 560 716 580 668 628 716 516 564 684 668 540 620 704 660 604 496 540 604 572 564 552 512 580 676 596 580 596 600 640 520 512 704 620 568 588 532 728 576 508 564 592 600 708 668 612 660 568 692 644 820 476 468 776 604 528 632 484 592 628 644 584 540 560 616 688 512 740 536 544 664 532 700 588 672 632 580 604 672 484 560
07859 55040 0.0000 600 600 588 612 648 596 548 536 496 548 576 516 452 684 576 648 644 644 528 660 636 704 504 656 564 572 660 580 568 680 572 600 548 500 552 732 592 568 616 436 632 640 568 500 544 632 492 468 592 584 688 568 492 496 544 684 584 556 608 516 632 496 572 576 616 500 680 572 524 552 568 540 700 528 536 592 464 600 536 716 560 664 564 560 540 572 652 628 564 572 576 540 648 596 536 600 576 524 576 528 620 596 600 644 532 588 428 560 624 520 668 604 524 756 584 540 648 524 588 676 564 596 544 624 504 628 640 548 620 660 576 616 544 616 468 484 476 640 584 656 604 648 600 636 624 572 504 584 564 572 612 472 496 704 524 660 628 648 484 496 584 540 496 648 572 740 616 500 588 664 640 540 500 492 612 552 568 552 584 540 492 560 524 636 604 640 556 652 628 596 520 596 576 500 576 536 656 512 644 616 580 580 496 540 700 588 500 560 512 564 552 572 700 680 592 776 640 520 512 616 700 664 596 612 652 460 484 688 696 660 560 532 524 664 508 432 660 636 644 556 496 516 604 636 576 540 568 636 488 560 616 548 636 628 516 632
07879 10496 0.0000 488 440 392 412 424 532 520 484 660 612 516 568 476 452 416 420 520 496 648 492 524 528 468 412 512 516 500 432 512 500 460 492 584 492 412 864 480 660 444 856 428 676 572 648 644 580 516 796 468 444 488 480 452 472 464 660 660 520 556 552 532 496 388 428 468 492 464 464 440 424 416 480 448 564 448 428 428 428 448 408 408 564 532 464 528 576 496 428 428 668 636 488 448 492 420 676 624 448 488 420 688 528 420 500 652 436 676 416 408 408 512 400 476 508 428 412 404 412 552 480 448 452 456 660 604 416 468 440 436 448 512 476 448 484 452 616 484 580 532 576 544 520 468 580 436 432 536 432 480 432 480 800 464 804 708 480 432 456 672 944 504 456 440 516 656 448 656 664 432 440 844 524 476 492 464 532 600 448 872 548 680 548 624 536 444 460 456 436 460 540 564 476 512 604 516 464 484 488 440 424 412 524 420 388 456 560 416 440 716 408 428 460 792 484 448 552 636 544 620 448 468 576 640 464 472 468 588 564 488 516 592 660 584 496 420 404 468 508 404 512 528 476 476 648 460 480 476 604 496 488 476 432 488 492 624 520
07879 18432 0.0000 424 656 408 404 388 428 448 464 524 500 400 400 536 456 392 388 380 372 732 488 384 416 380 380 384 384 460 592 516 448 512 408 436 408 360 384 376 408 364 348 360 420 404 420 440 456 512 448 356 360 388 472 436 404 456 444 496 380 692 428 416 408 388 396 392 388 392 380 400 404 412 544 388 416 444 464 432 408 396 376 388 404 376 392 364 412 432 404 372 400 404 424 472 424 396 384 432 568 480 560 532 564 420 692 396 380 404 416 628 404 480 628 496 544 536 448 436 432 376 420 424 372 400 412 416 508 500 544 440 412 372 392 408 352 368 432 392 412 620 448 428 408 404 636 388 420 380 376 384 368 404 384 472 464 440 380 368 368 524 464 424 692 640 448 424 416 392 576 600 428 392 396 388 392 372 656 380 360 388 368 440 428 428 572 468 408 416 380 376 368 364 416 428 660 424 396 376 376 372 800 488 444 472 456 428 400 432 436 424 576 524 472 520 552 556 444 500 416 452 416 492 568 572 448 408 396 424 448 456 424 392 396 380 372 364 380 404 628 484 420 588 428 552 480 384 384 368 428 424 408 440 468 548 508 464 496
07879 26368 0.0000 708 644 708 508 472 524 640 712 744 560 652 448 788 948 560 476 1000 452 852 840 428 404 556 552 444 448 496 568 432 960 524 444 428 708 412 468 448 472 776 732 588 652 520 780 640 468 636 652 500 696 1044 412 504 436 440 432 768 760 420 508 684 576 548 516 200 828 532 520 700 636 496 516 424 644 596 480 448 796 448 432 548 516 676 528 624 548 532 484 768 736 468 708 420 420 464 1184 504 688 468 692 532 504 432 752 3124 688 536 528 644 724 848 616 540 664 492 512 548 568 708 676 436 428 952 508 488 640 736 496 496 896 512 672 448 400 412 636 540 620 880 568 664 724 656 636 512 688 596 856 580 488 672 688 516 776 436 484 848 512 744 960 512 484 836 616 556 480 460 552 624 624 504 524 976 508 1072 588 604 452 780 668 576 816 468 712 488 532 452 488 500 736 516 780 588 444 860 568 620 648 588 492 708 664 524 460 532 616 444 424 468 532 764 960 556 512 816 476 656 520 664 632 496 456 492 416 428 728 1096 832 752 628 444 844 552 560 2308 1016 492 428 480 572 476 464 1008 516 672 796 592 452 956 656 536 748 532 536 768 640
07879 34304 0.0000 616 668 516 1012 900 528 472 844 560 696 820 652 520 620 572 752 516 848 696 532 1204 792 636 716 528 928 708 548 604 844 744 536 568 920 588 888 1008 572 704 1044 736 716 848 588 692 536 544 640 744 612 796 736 972 636 604 812 596 556 816 704 472 904 788 552 880 796 488 776 604 500 572 640 552 720 560 784 824 608 796 648 748 1096 672 916 876 608 680 540 644 696 748 684 488 908 948 572 612 808 656 544 740 752 764 468 452 892 928 660 1112 860 688 780 492 636 808 676 472 740 536 584 528 964 544 764 764 748 536 808 880 548 872 896 796 532 660 748 624 624 716 928 588 752 588 1108 792 656 792 456 812 584 836 548 576 700 428 652 656 568 864 684 680 656 636 852 516 936 648 680 564 736 556 948 732 848 548 760 444 436 592 972 816 492 428 700 580 464 412 500 764 812 568 552 736 1140 596 648 584 832 528 1140 820 800 712 600 1116 572 1108 760 552 888 740 804 552 392 484 456 424 776 524 940 464 484 908 992 888 604 512 504 744 548 864 640 664 592 960 760 704 636 868 592 832 484 472 528 1136 512 840 592 660 696 536 996 1096 548 528 404
07879 42240 0.0000 480 724 972 732 508 436 532 528 468 440 428 520 608 504 700 508 612 740 460 508 460 796 596 496 472 568 576 524 680 736 852 508 436 616 528 648 624 684 540 496 616 520 672 652 720 484 756 496 436 740 480 820 516 508 520 552 568 544 612 676 496 456 748 596 576 644 512 676 508 676 504 752 672 720 540 740 528 648 500 500 524 920 736 544 552 456 476 716 856 572 696 620 468 764 472 1004 520 956 732 696 428 472 468 480 680 484 496 944 596 500 472 436 456 488 872 700 632 648 740 864 620 472 428 580 496 868 704 468 428 608 468 804 520 576 784 668 528 508 528 612 464 480 708 700 688 492 428 460 660 528 672 636 832 468 684 448 668 576 460 688 508 492 840 484 428 508 576 552 480 552 696 516 564 544 852 728 644 452 612 604 640 832 676 564 652 576 472 604 748 516 648 640 604 816 456 448 700 564 712 780 688 552 492 500 820 652 544 716 532 488 444 648 504 664 456 452 732 400 432 640 484 512 468 832 472 484 476 472 484 760 504 820 788 524 660 592 492 464 532 564 876 640 808 832 708 584 488 896 684 712 748 500 444 464 716 472
07910 8704 0.0000 676 1132 736 636 624 572 636 560 540 936 916 852 684 980 868 748 684 984 848 736 628 568 864 1068 900 724 652 652 868 672 576 680 576 600 880 852 984 876 652 876 664 920 804 484 556 844 624 972 680 700 748 688 1068 616 564 748 844 860 684 888 620 620 592 596 888 916 668 676 744 960 812 892 584 428 696 840 568 568 848 816 792 488 1076 812 832 720 536 840 668 552 584 696 764 788 1152 740 440 592 840 848 584 896 952 596 976 660 792 800 648 540 404 676 676 624 716 732 676 556 1024 624 604 580 896 708 768 888 508 924 812 532 928 860 948 972 688 908 832 524 456 872 796 616 832 756 820 596 868 1080 980 1068 560 552 912 800 860 996 736 508 504 768 616 1060 736 480 804 812 572 564 688 1440 988 504 984 548 764 884 632 1048 1016 708 908 796 756 912 1060 716 856 840 672 1016 1080 820 752 524 1128 540 528 1324 832 980 892 840 800 1316 756 544 928 872 580 828 624 688 572 564 408 824 628 412 588 500 760 832 612 664 848 612 956 808 576 956 620 1224 832 684 712 600 808 604 552 480 776 1104 732 544 504 464 896 1072 1020 880 548 480 704 752 492 904
08215 13312 0.0000 864 988 792 792 672 872 980 1220 844 716 764 796 820 1220 856 1176 600 848 980 988 892 684 792 796 884 820 872 1008 804 860 792 936 840 836 980 924 912 956 740 772 816 840 920 784 688 828 776 780 560 844 1020 1180 948 984 436 728 532 732 1072 544 704 728 916 544 780 1152 796 732 960 824 716 516 1072 700 672 1060 1120 748 700 864 860 692 832 780 708 784 592 516 1016 724 1200 960 1012 836 1112 768 512 816 780 764 532 680 812 864 956 1012 844 796 796 836 520 756 508 884 1152 780 896 844 720 584 1176 1160 908 1028 788 732 544 828 972 812 824 816 812 716 976 820 1100 1072 696 732 852 756 752 836 792 572 528 676 788 812 528 792 828 816 544 512 704 732 876 816 1080 600 1004 896 816 964 672 776 572 872 1028 944 716 724 904 796 732 828 916 1136 868 948 644 1024 744 928 876 904 1096 636 512 732 968 520 924 620 816 996 588 488 700 820 796 800 896 752 1052 912 572 764 912 832 972 692 672 1152 684 668 692 720 872 832 924 528 816 728 528 908 824 888 820 800 728 956 780 936 936 956 880 832 568 692 1016 1000 864 700 848 652 628 712 916 736 968 656 1096 880
08215 21504 0.0000 728 904 744 848 760 1104 1048 980 932 596 992 736 868 824 868 768 812 916 844 944 900 752 724 928 1168 980 528 476 980 1168 756 796 792 776 1104 848 628 928 764 868 1000 932 1264 1272 724 508 500 1200 668 904 988 656 520 1288 684 1024 904 1200 1128 976 992 916 580 560 984 852 908 988 708 872 1192 868 880 704 708 1104 544 528 724 752 1008 788 892 668 1160 1316 932 904 620 924 1004 560 860 920 828 848 780 828 876 1176 980 1240 816 964 840 884 1140 1028 520 816 900 864 556 696 508 720 784 916 1136 724 728 588 832 632 612 816 952 868 744 864 592 788 672 1316 968 608 908 804 780 820 692 772 824 896 712 752 612 1028 804 808 712 812 908 924 852 716 844 948 756 944 680 1140 760 624 764 1228 796 792 712 1004 960 628 784 692 544 744 956 1024 972 596 1140 1096 916 900 1052 1040 912 780 928 904 900 912 720 892 912 812 840 676 1096 804 596 720 512 828 844 764 688 672 828 668 704 1156 1136 888 756 1308 1028 840 868 792 764 772 1204 1020 1064 916 456 936 764 996 840 936 808 516 1116 1200 1008 736 956 848 1220 604 772 724 860 824 828 1164 640 808 552 916 608 804 800 1152
08215 29440 0.0000 1276 952 1076 916 444 784 1208 868 1236 960 1160 1104 1184 1020 920 1092 980 884 1228 796 856 988 1008 712 932 1272 1072 1172 988 1220 1020 832 812 864 908 948 1100 1084 624 1256 848 1172 1276 956 1172 1212 1244 1164 1192 564 1156 588 752 1020 1172 1036 904 1160 988 972 720 584 980 924 860 1192 868 860 896 988 860 1180 1092 788 868 1252 948 1004 1220 796 1180 1000 1176 924 924 960 972 1132 884 788 908 904 1268 832 1020 816 880 1208 1160 1268 860 1000 1180 1012 856 1216 744 908 1012 1192 928 884 792 920 976 1156 1260 1232 968 1000 756 1036 1136 992 1144 1000 1236 980 884 1208 1064 684 712 1196 1320 952 1080 796 852 1160 1272 1140 1048 1176 736 868 824 1056 716 1196 1076 856 764 1212 1200 768 1152 1036 1132 1132 1200 1136 976 836 980 1096 1188 1164 772 904 1140 904 940 1148 1184 1072 1240 1056 1236 1176 1076 1108 844 1064 1244 1116 788 1172 752 884 1112 1192 1216 1216 1192 908 952 1076 1196 1120 1204 912 992 1144 844 1136 1132 1232 692 836 1160 1156 1048 972 1220 624 1104 1080 1144 1012 840 912 996 1068 992 1176 1148 1064 1144 1216 884 1196 804 1064 928 900 1096 876 908 1192 988 1184 1204 796 920 1148 1280 1180 1212 892 988 1144 1216 868 1080 580
08215 37376 0.0000 1284 1320 692 1244 752 544 848 1092 936 1176 856 828 924 840 836 996 1016 684 1220 596 788 860 764 836 1056 1164 692 1212 1040 856 796 1188 876 980 1076 984 904 1144 960 1352 1100 984 788 960 1344 1104 860 736 808 864 860 872 1512 668 1144 764 844 876 704 892 984 876 836 964 572 824 1128 1112 788 840 1084 1196 932 960 576 700 860 840 892 1012 1324 776 836 800 804 600 1032 1500 892 908 936 1428 544 1032 860 640 896 944 884 900 980 628 704 884 1148 1448 616 1412 836 880 1280 672 896 1404 980 916 856 872 704 1712 824 960 924 1132 932 744 844 964 940 988 1472 1144 1148 952 892 840 1116 1312 852 1304 604 1048 944 972 1164 740 500 864 600 896 912 852 976 840 1436 1024 852 1020 864 784 1316 976 1096 1044 840 828 968 704 956 1216 824 764 1308 1340 1008 960 1440 836 1168 680 732 1348 964 924 920 1272 1176 992 648 836 1196 736 1292 996 488 1108 1104 1232 1304 824 728 1284 784 972 864 1252 1080 900 908 888 936 1176 1096 928 716 960 1108 860 884 1116 1016 612 1028 696 820 1052 988 1020 1076 900 1112 788 816 844 1500 1032 1060 552 992 608 624 688 1344 680 1112 896 1024 892 1080 1336 936 708 908 900 912 1004
08219 25600 0.0000 492 508 604 508 736 636 576 552 612 716 548 520 440 960 448 544 652 496 468 540 728 716 736 408 1144 408 680 556 640 700 448 404 432 604 488 712 604 536 592 424 380 496 552 476 984 724 688 680 676 660 664 656 396 808 668 652 648 652 652 488 760 652 648 644 640 644 644 504 736 412 472 756 664 652 380 504 512 432 440 508 472 556 460 500 1132 664 408 552 460 408 740 468 516 444 460 496 516 516 520 432 452 392 420 440 496 484 428 496 628 520 516 552 532 492 520 608 492 548 488 428 396 632 432 588 632 392 424 496 432 1300 712 684 388 840 384 436 616 500 476 568 436 508 488 476 436 528 564 528 648 1172 800 868 584 444 632 500 640 572 652 492 492 444 380 612 576 488 416 436 500 476 1032 360 856 672 380 808 652 384 788 644 356 852 616 384 772 644 628 624 620 616 440 740 628 440 736 616 448 716 620 604 1168 376 468 384 500 388 932 404 308 416 484 884 428 376 356 524 468 360 612 408 1044 408 444 480 416 396 352 480 464 428 472 328 468 452 356 728 448 468 468 412 500 496 488 460 436 472 748 472 520 488 420 468 720 568 484 456
08378 7680 0.0000 528 684 640 680 672 648 612 460 636 680 660 716 796 620 656 588 736 720 504 744 628 740 552 608 672 700 656 844 596 852 640 592 564 644 804 728 744 680 740 856 696 780 848 644 792 708 724 564 644 640 936 720 660 732 728 780 676 748 864 736 680 684 724 540 832 632 672 632 756 652 544 656 832 716 712 836 584 788 732 708 660 776 596 760 676 612 804 648 648 760 944 868 868 740 668 744 684 740 744 756 788 740 704 736 640 632 660 772 684 588 648 728 656 712 732 584 648 676 660 556 676 608 616 704 668 656 600 612 752 752 540 516 524 684 636 724 848 680 640 740 660 684 768 652 548 816 640 652 588 764 836 604 656 732 592 660 844 732 836 564 808 652 836 872 648 604 592 728 744 668 616 764 752 720 724 720 620 648 596 648 656 596 700 624 628 632 768 596 804 716 776 612 688 728 604 812 536 640 844 876 652 684 764 676 736 720 768 776 608 716 628 640 664 600 672 840 684 656 828 632 680 616 772 856 700 788 688 684 656 688 676 788 668 596 644 812 692 700 648 696 900 792 896 580 672 812 588 880 696 780 724 588 724 636 748 588
08405 14592 0.0000 828 712 660 760 848 468 380 696 488 740 1056 804 772 480 928 836 768 576 480 904 616 900 636 572 620 448 720 960 920 492 588 576 536 476 656 700 660 700 716 812 940 508 392 388 788 540 1104 968 664 728 492 932 760 720 784 584 584 536 780 484 560 488 412 752 652 432 560 532 428 440 444 664 588 716 888 816 696 488 452 1308 932 388 408 820 872 1268 856 440 568 608 640 452 804 560 768 484 380 420 428 824 748 820 684 988 876 772 476 548 1144 476 736 536 740 504 656 620 492 668 936 488 552 1032 596 1260 520 364 448 1116 508 428 456 732 760 460 416 492 888 668 684 592 688 1004 928 624 452 672 888 812 796 708 832 544 800 492 764 500 752 596 632 956 1116 512 604 820 884 792 580 740 496 508 804 916 828 664 752 668 480 812 888 700 532 836 720 452 436 680 508 956 764 552 748 484 400 424 504 592 696 460 524 428 864 952 732 780 524 640 744 740 776 460 1188 524 528 616 564 440 420 480 744 460 456 464 676 476 464 1028 500 780 972 592 660 900 488 356 764 724 812 788 816 484 764 768 792 1000 812 492 600 744 732 496 676 492 456 444 924 816
08405 22528 0.0000 732 916 912 828 560 760 952 760 644 496 432 728 772 452 396 516 476 416 684 724 580 1056 664 500 752 460 764 724 472 412 348 468 948 688 548 456 464 696 492 652 760 460 484 440 600 572 488 584 700 744 664 504 564 444 456 520 656 448 616 544 448 480 500 676 484 420 680 468 496 956 448 796 440 784 520 400 532 692 460 456 408 616 460 1004 800 468 760 592 424 440 488 664 640 556 536 536 772 788 484 664 452 756 868 496 704 752 472 632 560 484 688 708 764 756 520 444 728 528 788 484 656 476 968 636 724 464 676 784 868 936 620 680 684 1292 556 760 456 992 580 412 536 464 420 468 716 772 708 612 932 728 948 624 844 584 764 492 416 752 732 484 716 468 960 588 732 472 772 488 384 392 940 700 1212 488 740 576 588 576 808 844 472 652 444 580 764 596 492 852 464 388 536 444 960 612 500 720 756 504 412 428 708 444 736 440 640 440 608 552 420 684 536 776 664 592 456 592 620 412 1136 776 820 596 752 488 912 480 728 532 424 792 512 884 580 808 764 476 760 596 568 616 916 460 644 780 508 680 456 652 788 724 804 444 948 628 412 708
08405 30464 0.0000 464 676 608 544 656 464 880 564 900 792 440 456 748 480 920 472 852 576 384 716 568 380 836 480 1096 656 612 952 504 392 804 736 848 464 520 460 384 572 564 724 620 572 720 556 524 448 884 560 712 520 792 892 816 928 468 932 536 716 508 412 380 696 472 440 836 1028 548 820 900 788 476 676 480 764 452 476 856 988 488 468 820 468 396 360 368 548 576 792 440 360 768 660 660 880 788 492 704 860 580 704 1024 520 988 480 636 456 348 732 492 444 396 544 484 384 460 492 440 420 432 480 412 520 624 392 800 768 980 476 608 808 936 476 548 696 476 840 676 416 560 720 568 680 484 476 616 820 584 444 412 708 472 512 596 516 516 524 476 708 744 852 568 692 452 396 600 700 728 936 516 444 404 612 588 464 752 696 748 468 384 736 824 888 664 596 580 492 812 464 644 508 736 448 984 496 864 480 388 744 612 452 600 680 564 720 488 424 668 460 776 644 720 624 548 576 404 564 472 232 896 496 548 576 564 420 408 388 388 624 432 396 464 612 732 532 752 724 444 388 420 588 636 724 1128 716 596 556 652 752 780 460 688 832 824 548 696 772
08405 38400 0.0000 448 684 456 700 448 384 888 936 480 616 540 580 664 428 372 416 408 796 612 384 588 784 668 428 848 492 496 424 648 488 660 784 448 756 776 664 412 400 424 396 536 620 416 432 388 456 580 780 460 892 492 416 476 848 436 428 428 704 788 448 500 416 376 672 464 704 556 576 760 892 444 788 628 468 736 484 416 500 428 384 376 564 432 656 428 384 388 484 700 444 672 444 460 804 480 424 416 848 696 496 372 412 672 532 436 652 740 428 396 512 428 828 764 428 452 412 436 628 464 772 720 764 496 712 440 712 364 592 584 404 380 444 564 404 392 592 744 432 924 448 320 392 380 476 560 524 452 444 436 608 680 764 644 452 420 564 656 688 536 428 696 796 436 368 712 776 444 340 560 476 340 372 600 744 816 460 396 424 620 428 696 680 508 700 736 428 580 492 488 628 592 708 724 544 460 372 384 584 584 424 408 372 728 764 688 512 416 408 756 836 460 396 352 424 516 552 576 400 600 440 376 644 408 372 404 792 740 740 456 448 464 468 412 604 676 700 464 744 436 364 372 348 424 388 444 396 412 404 816 580 512 624 476 392 472 444
08405 46336 0.0000 752 472 332 748 456 404 688 704 448 408 684 480 484 656 412 432 480 600 556 508 452 764 552 428 400 424 652 428 408 820 504 632 460 704 720 424 404 728 568 604 624 588 916 480 624 460 428 680 484 776 548 572 664 424 436 472 420 364 380 400 412 412 372 708 472 808 692 420 708 752 796 876 612 1228 624 640 668 412 756 1112 852 560 820 768 1052 764 564 768 604 728 416 556 720 452 728 800 692 436 376 724 684 1068 480 412 572 916 540 1008 520 424 476 656 424 368 556 716 732 428 556 588 440 740 844 528 764 768 740 736 492 540 748 432 940 628 636 516 640 468 596 492 704 720 596 700 688 400 660 464 412 520 444 980 744 1344 596 856 564 956 568 504 800 644 508 780 488 452 500 828 888 764 656 504 476 460 612 648 708 440 332 680 476 400 540 608 740 616 232 864 680 396 740 460 396 544 540 760 724 588 416 724 448 692 740 468 652 772 780 592 732 760 580 516 432 460 612 452 588 460 388 400 884 688 456 364 408 644 528 880 544 680 432 440 520 580 652 432 560 452 412 732 776 536 412 788 680 456 576 856 964 460 568 724 724 492 484 680
08405 54272 0.0000 456 444 428 348 412 424 648 440 716 400 504 464 516 540 444 644 572 524 416 568 580 536 556 576 412 544 432 404 812 544 668 592 468 452 412 964 644 468 460 700 448 368 392 412 404 672 732 524 584 480 576 516 384 380 444 524 708 664 576 388 412 404 740 432 500 800 456 516 496 488 488 424 672 484 444 396 372 436 436 592 396 488 408 428 708 504 468 432 532 404 408 572 408 500 548 456 676 416 464 592 448 460 404 448 520 432 572 440 428 484 588 548 564 456 500 456 464 436 476 424 572 460 424 372 476 436 348 452 416 732 464 452 380 408 424 440 420 452 592 432 508 484 500 556 464 412 436 484 656 372 428 416 512 428 412 596 412 524 500 448 728 464 456 396 384 600 428 480 388 384 364 376 384 572 408 564 472 444 400 368 564 532 504 504 568 604 372 352 352 480 428 360 616 476 368 372 444 356 764 448 368 456 404 860 492 384 640 628 444 432 444 472 364 412 420 536 428 508 536 452 464 588 580 476 712 428 432 492 648 508 540 572 820 444 348 468 636 424 436 476 460 424 508 536 764 592 492 468 552 456 396 448 368 380 532 372
08455 17408 0.0000 396 776 588 400 732 540 500 712 484 516 492 452 364 556 756 940 468 676 536 792 516 620 500 612 596 696 452 528 772 436 420 548 448 488 744 504 548 412 380 668 748 488 500 808 460 748 508 428 396 444 712 644 428 552 548 428 424 696 704 420 512 464 528 592 836 592 528 776 660 508 388 376 612 472 444 564 656 580 468 900 456 532 712 724 608 636 508 508 504 556 460 452 460 500 592 460 428 404 668 748 512 420 508 480 672 540 824 464 436 616 748 796 488 544 408 556 996 508 456 512 640 532 532 684 620 744 1068 488 388 824 504 476 420 480 472 484 908 512 416 476 508 436 496 460 536 448 508 480 464 392 576 872 584 516 732 432 496 464 468 680 516 488 584 536 644 940 480 368 476 424 508 480 664 940 500 816 612 472 488 580 812 540 548 688 792 728 520 604 496 516 452 668 728 672 460 452 512 452 460 352 404 360 576 600 428 464 492 548 684 776 548 768 520 488 640 464 404 756 436 520 540 580 724 596 448 528 488 420 420 648 468 508 584 912 660 480 432 608 656 476 468 572 692 664 1060 628 780 556 524 408 676 460 404 376 412 696
08455 25344 0.0000 444 756 696 416 436 400 608 728 484 840 808 616 680 484 488 388 372 700 424 684 552 724 700 488 424 500 416 660 688 564 460 464 572 524 836 880 448 384 448 424 468 368 448 492 416 564 524 868 456 576 608 392 544 520 636 784 524 380 480 492 512 752 692 556 748 672 480 416 696 468 792 668 548 416 448 524 508 516 744 452 388 452 644 572 544 724 436 636 848 464 420 468 400 584 472 564 724 612 420 476 784 484 600 420 376 420 652 728 512 520 748 416 380 428 516 460 508 444 836 508 488 496 764 536 476 744 500 444 420 732 608 404 388 400 428 484 540 516 504 608 608 480 460 792 828 892 576 604 432 500 776 560 496 412 428 984 772 696 500 800 516 452 1104 472 348 816 624 472 424 424 504 408 372 400 512 456 792 448 548 684 508 676 628 812 512 672 628 748 452 964 696 580 840 632 464 564 748 668 828 504 492 764 704 484 424 756 556 476 412 544 520 844 648 544 732 632 528 644 688 852 456 408 524 504 624 748 452 484 404 480 880 740 432 580 440 684 436 412 384 620 440 788 384 516 680 428 428 704 592 520 700 484 528 696 464 656
08455 33280 0.0000 456 388 504 432 544 680 444 416 460 476 416 580 760 404 708 440 384 440 668 468 800 944 436 368 404 364 528 800 420 416 456 428 700 432 396 392 376 416 624 428 820 484 580 656 436 492 492 464 412 440 816 928 608 716 688 740 456 464 444 468 372 568 516 460 448 368 416 664 544 404 412 456 352 616 476 640 428 484 392 448 600 560 488 476 404 636 420 708 880 704 516 800 436 448 392 388 580 848 436 692 404 632 772 632 424 448 564 448 412 348 388 908 512 544 524 692 416 524 800 536 440 388 412 388 404 368 372 508 452 420 428 388 432 412 476 396 396 408 660 708 412 428 588 568 452 572 424 384 444 424 464 412 484 412 600 448 776 436 516 536 508 504 384 396 436 580 756 512 704 500 620 472 448 468 616 500 868 544 956 556 568 652 456 436 348 432 372 408 456 776 692 384 400 440 824 632 376 772 432 728 480 740 596 576 420 568 424 396 440 788 508 500 500 648 456 424 564 572 516 500 496 648 772 640 504 424 496 504 488 732 712 528 516 708 452 592 568 800 700 528 548 556 480 496 724 424 716 480 532 608 448 400 640 468 628 696
08455 41216 0.0000 448 608 472 656 376 328 348 568 396 348 416 328 416 452 412 388 356 440 544 704 428 532 448 456 452 404 448 384 448 356 428 400 480 364 356 380 472 416 392 412 492 488 540 528 336 492 636 428 408 364 456 516 456 544 400 364 340 440 448 424 492 496 380 384 624 380 460 408 508 408 484 396 436 380 476 352 436 428 548 424 652 416 416 364 364 440 520 568 472 460 396 480 396 384 572 644 464 396 488 384 392 456 424 408 564 500 468 364 380 364 432 532 436 396 496 392 444 448 408 412 584 528 540 460 416 416 468 384 404 392 388 388 424 332 472 444 408 448 412 476 388 700 436 368 416 400 428 552 464 476 392 364 408 492 560 360 376 436 396 352 372 548 420 456 444 424 460 440 520 356 420 424 400 360 420 348 420 436 400 412 384 496 380 452 412 340 340 372 384 376 468 456 392 416 784 412 616 536 388 764 388 388 444 448 436 568 468 448 936 456 524 496 504 388 412 396 376 452 348 364 360 492 568 380 500 440 384 564 424 460 404 364 724 440 368 356 416 360 516 444 684 380 364 396 368 660 456 424 372 384 372 416 380 356 340 452
08455 49152 0.0000 732 520 584 764 596 704 808 496 460 548 596 620 804 556 584 544 856 784 740 648 592 668 648 832 464 372 612 476 608 940 452 448 500 468 468 988 716 488 412 1004 484 436 528 620 556 612 700 432 412 492 612 624 624 568 796 576 628 620 708 440 408 572 444 548 788 536 504 460 444 424 472 444 452 468 800 860 772 800 472 424 752 676 680 456 520 668 708 472 1016 824 524 412 372 628 668 508 784 644 824 568 748 480 648 952 636 616 1184 700 1120 532 516 520 456 432 944 500 412 908 508 532 780 680 844 768 524 628 544 520 540 672 444 376 728 468 512 648 720 516 804 892 508 456 472 500 1100 576 796 476 428 480 608 868 768 696 716 720 468 816 524 700 828 468 428 664 576 1120 632 548 444 412 644 536 488 788 856 488 972 1004 488 424 660 520 1028 744 464 832 476 392 448 412 512 460 492 424 692 472 732 472 424 804 584 920 788 452 432 568 832 488 892 468 876 604 512 700 448 708 492 396 428 872 736 492 644 632 852 840 840 616 768 712 760 472 424 752 596 800 460 372 404 748 456 384 412 468 416 440 656 776 616 428 484 408 452 776 432 420
