# physionet r-r rhythm segments, distilled
# source PhysioNet afdb / nsrdb / mitdb, ODC-BY 1.0
# class AfibAudited
# segment_beats 256
# selection every 1th of 27 segments in this class
# columns record start_beat premature_fraction rr_ms...
# lead chest, ambulatory Holter ECG - NOT wrist PPG
201 0 0.0039 711 753 608 789 647 553 956 753 719 628 650 672 758 911 864 678 661 711 394 642 714 586 642 508 803 681 556 647 706 808 569 700 644 586 425 708 539 647 814 1017 719 706 694 756 714 483 906 575 681 561 656 661 817 911 694 614 911 739 697 411 631 636 617 564 711 711 450 678 636 636 428 356 617 508 842 464 703 675 419 625 808 650 625 614 869 897 722 664 431 508 608 925 836 436 444 664 969 433 594 886 569 681 639 686 672 731 650 781 622 689 536 664 597 517 431 778 694 692 667 828 661 806 747 631 644 397 731 564 672 786 1153 861 631 478 553 647 878 514 794 683 856 414 758 686 411 561 428 686 831 928 650 542 969 461 392 678 667 694 678 736 783 825 800 925 825 625 839 567 636 611 728 481 639 675 686 414 378 894 611 642 397 883 1108 878 753 781 575 517 489 600 589 728 811 694 783 600 692 567 678 608 692 703 608 664 508 406 1044 697 856 803 892 697 511 633 633 733 725 681 906 594 469 628 664 900 692 631 628 417 717 447 1014 558 558 675 728 586 439 1142 839 631 517 364 642 761 692 725 708 642 719 692 858 692 694 647 639 597
201 256 0.0078 669 419 658 611 678 500 750 592 708 622 592 467 661 536 597 831 875 689 1214 483 642 592 753 692 656 806 758 1042 642 833 492 650 786 614 400 372 1106 586 556 936 653 422 781 678 664 794 758 544 908 1194 619 758 631 625 789 639 375 394 608 839 639 994 525 603 597 419 667 428 619 656 650 675 644 606 1022 853 797 764 761 800 694 661 697 886 831 758 856 642 853 828 750 569 531 575 703 728 453 600 472 625 697 681 689 514 619 628 592 433 628 389 781 733 625 764 772 797 758 642 569 658 656 653 742 1033 550 650 622 528 381 636 983 531 672 703 636 661 378 978 653 917 842 767 444 600 642 600 661 1133 847 572 803 911 753 792 686 753 889 922 714 544 650 814 722 603 392 672 783 689 619 608 650 619 725 1000 872 597 944 617 375 694 564 864 978 958 917 550 756 672 700 683 769 419 611 853 511 656 617 886 778 703 722 636 894 653 1194 719 428 700 839 872 825 592 617 761 506 744 592 653 658 478 519 719 436 475 1178 669 444 672 514 678 836 700 967 1533 683 683 622 811 722 647 767 622 575 586 1103 856 681 675 611 683 647 406 731 753 1000 653
202 1280 0.0273 453 422 428 456 478 400 422 481 472 478 864 483 842 428 436 400 408 406 461 836 467 464 450 503 458 611 614 408 444 828 478 456 461 433 442 436 439 431 419 417 431 411 494 439 461 422 444 425 456 450 433 442 425 394 572 1056 1597 1383 450 1631 469 511 1256 481 1561 467 447 886 639 792 606 483 525 706 1286 703 533 592 819 489 439 853 872 489 800 758 553 456 919 731 458 450 392 758 633 506 578 597 522 589 439 469 742 550 375 453 581 669 742 450 592 439 664 428 933 594 722 722 817 567 650 489 631 511 322 397 633 906 561 1103 569 381 578 619 692 758 750 803 714 447 714 619 736 558 683 806 786 789 503 789 936 553 550 900 592 669 569 739 644 561 717 489 453 842 639 544 656 458 561 783 719 642 575 669 753 592 567 461 636 739 1172 750 839 758 725 639 808 767 583 900 564 650 461 692 514 594 592 736 614 917 1211 869 611 736 822 483 806 558 608 703 522 692 431 447 628 653 483 628 1053 550 761 506 508 425 567 453 597 794 828 639 636 658 808 511 669 586 750 669 506 631 872 628 686 433 683 681 478 586 564 614 614 450 589 586 442 739
202 1792 0.0078 436 450 644 633 714 619 583 778 642 522 817 686 539 1072 622 964 711 528 925 764 775 703 572 422 614 583 1033 594 672 706 561 661 628 717 706 547 478 653 778 711 414 881 667 478 761 692 700 953 689 831 528 522 772 869 919 717 686 394 747 517 597 828 631 767 486 425 386 469 619 581 608 575 997 736 833 725 558 636 442 425 542 622 606 736 500 472 725 453 817 578 683 961 908 900 756 636 583 606 953 719 606 722 469 881 606 642 689 1078 750 703 772 681 536 661 469 575 669 944 622 556 919 581 719 625 581 381 819 744 697 814 756 564 697 469 953 542 658 472 753 800 711 603 731 1039 722 644 711 439 814 636 722 853 553 956 578 542 725 619 347 678 478 714 744 742 947 586 750 617 550 536 547 917 483 544 767 664 547 722 619 431 700 669 817 1089 589 497 692 714 494 619 856 836 528 608 492 622 653 483 831 883 797 806 783 689 892 711 683 628 514 786 800 839 492 842 458 886 942 544 833 681 631 853 586 553 883 756 811 647 839 678 475 619 703 717 717 503 947 481 575 392 397 453 678 522 786 714 1047 564 564 547 600 764 611 642 581 567
203 0 0.1641 922 636 561 389 744 592 656 431 633 414 325 417 392 369 392 542 569 364 694 386 389 675 844 506 381 619 458 519 597 403 656 472 650 769 647 931 856 453 367 756 439 636 931 661 500 383 667 775 603 914 925 697 725 864 569 444 719 692 636 656 575 950 658 661 764 831 547 389 881 533 542 833 386 658 814 353 367 328 828 431 617 753 853 569 575 750 569 397 372 969 422 575 539 442 356 353 525 375 347 336 358 828 431 314 461 328 361 350 378 328 322 1053 372 678 358 844 422 378 356 653 442 328 831 389 647 908 833 411 392 639 425 678 836 861 400 683 650 514 625 453 878 494 739 769 606 864 422 739 667 914 756 442 650 758 592 711 408 381 378 997 364 1089 425 397 389 731 425 344 750 364 356 383 414 603 722 339 672 400 644 683 631 350 292 333 761 669 653 367 344 406 553 511 350 400 331 600 361 872 358 1139 419 739 425 875 858 617 708 386 967 428 364 433 406 656 650 464 369 353 414 331 378 772 392 800 336 608 344 758 350 564 483 311 686 1203 467 572 933 897 356 642 386 361 692 508 914 819 861 367 325 350 625 700 756 853 1244 656
203 512 0.1562 453 386 978 422 733 403 422 617 361 344 394 756 939 528 892 517 664 381 775 700 697 447 750 736 486 742 747 761 408 428 403 769 756 683 581 372 400 622 394 453 619 764 722 953 767 742 494 681 689 467 686 772 456 367 642 878 383 361 1050 439 739 444 375 381 364 667 506 658 919 556 389 1056 486 719 636 575 850 403 506 492 653 886 628 803 664 358 364 319 333 683 369 711 1108 692 989 692 661 1150 758 925 783 894 650 981 814 628 922 611 533 664 656 894 461 294 1144 458 597 375 639 497 361 331 625 439 414 661 400 328 744 758 353 733 558 481 636 692 783 883 778 875 792 711 794 608 750 714 494 600 389 717 767 531 617 450 642 428 656 567 361 333 397 361 336 342 414 881 744 669 636 714 397 325 331 853 358 572 394 728 458 644 781 894 575 500 372 728 694 703 944 933 519 569 675 733 797 422 333 725 736 400 367 606 692 408 694 628 1086 603 961 739 669 711 433 997 411 650 706 700 714 392 378 869 428 700 942 575 769 403 347 661 408 719 392 411 403 781 611 1097 417 706 381 628 922 539 689 664 647 539 389 789 431 597 831 842 1014 450
203 768 0.1523 1011 886 742 394 486 847 544 500 400 389 369 358 706 403 769 486 636 381 339 789 397 889 475 428 553 825 558 372 431 364 422 917 414 386 667 700 736 736 431 536 833 569 706 678 628 903 706 628 442 728 572 417 681 372 386 692 511 694 406 411 392 381 675 422 469 578 772 500 342 397 631 656 969 408 961 761 697 372 386 367 842 433 356 350 394 856 361 644 747 903 472 839 1144 414 758 547 739 481 700 847 786 1269 1094 511 708 419 331 767 886 656 708 600 397 419 692 372 347 569 1061 650 453 608 519 314 783 633 406 403 367 369 564 758 394 733 683 525 575 631 375 358 819 392 661 733 694 386 392 364 667 389 422 564 364 1850 569 653 728 719 556 575 750 567 492 478 847 550 586 422 392 544 544 603 611 528 467 686 369 503 756 650 694 644 711 428 667 392 625 472 669 461 406 839 403 725 975 717 642 675 636 472 719 625 394 761 375 372 981 353 1067 442 903 544 608 389 339 850 419 772 400 381 725 811 747 667 861 383 678 664 381 389 750 625 394 556 353 417 564 686 642 664 625 458 656 439 617 697 378 758 700 725 669 392 322 417 522 617
203 2048 0.0898 617 664 367 333 450 369 375 389 736 397 622 692 517 381 928 361 700 706 856 661 603 869 847 758 542 797 936 811 847 394 394 964 397 464 478 722 1156 1164 819 828 739 706 731 517 400 378 1117 428 975 619 972 764 419 842 875 750 731 778 786 417 358 697 458 742 914 683 386 1000 414 911 669 653 1133 1014 539 350 622 642 592 439 792 597 678 364 308 389 658 317 711 622 650 456 344 303 356 394 586 461 572 731 447 614 469 506 419 711 706 836 842 497 414 367 356 433 619 667 386 358 519 1228 372 647 569 853 725 697 742 450 958 467 892 875 911 408 536 553 825 411 894 931 758 689 772 706 725 458 808 478 339 403 958 442 969 392 644 981 767 1000 761 592 389 603 1058 1161 686 856 658 656 1064 678 358 900 994 814 406 311 1058 392 842 1056 969 828 781 686 700 381 861 678 842 697 569 417 367 639 519 736 717 547 514 406 597 811 564 378 372 636 339 639 464 789 681 761 408 939 814 631 636 800 725 983 431 1025 489 767 503 594 486 622 586 408 789 483 631 733 750 903 708 794 597 747 669 753 428 664 1122 831 642 867 611 822 644 803 756 706 933 567
203 2304 0.1289 506 761 675 544 683 572 694 744 653 881 472 667 572 464 692 872 833 406 256 708 631 553 753 856 631 575 581 839 664 847 600 489 675 594 594 414 400 464 606 714 594 397 386 753 428 317 322 656 442 603 714 767 397 661 411 292 322 933 369 742 403 708 589 375 733 422 389 703 453 489 619 369 367 747 644 800 378 714 417 361 542 742 700 469 703 592 828 886 392 364 722 806 917 433 767 406 678 542 617 378 350 750 428 539 608 603 689 461 439 367 656 817 722 511 617 689 358 897 394 367 733 447 917 728 708 817 881 700 417 858 461 278 697 847 539 558 400 314 706 778 922 1114 692 1136 972 503 744 908 653 389 589 819 669 411 397 364 650 639 1025 578 625 683 542 892 822 1178 856 392 850 900 553 481 664 667 742 811 744 858 656 428 828 433 514 636 931 642 367 269 336 631 464 817 486 1083 431 350 681 489 428 603 767 797 828 808 458 683 661 836 650 628 769 636 422 706 725 822 703 419 389 322 603 447 808 492 436 664 431 1042 419 1231 1172 503 633 617 350 314 511 714 656 642 725 794 453 875 619 706 692 386 519 467 753 722 603 339 597 392
210 0 0.0781 536 614 428 669 597 603 800 644 583 614 719 669 661 719 606 583 464 861 639 594 639 831 664 744 547 733 756 464 581 575 667 631 564 625 758 789 750 575 631 867 731 614 967 697 700 561 333 986 675 703 678 581 361 786 631 514 697 753 706 611 700 606 797 639 636 636 644 697 631 706 664 425 725 728 739 742 564 711 650 639 347 703 556 589 742 667 656 506 986 553 550 539 561 675 758 728 717 856 706 703 689 706 661 747 744 622 550 383 883 714 569 572 736 922 706 594 686 758 647 797 742 692 772 689 689 822 675 653 756 542 758 592 778 653 525 589 703 772 708 742 736 722 692 631 539 750 425 417 894 608 700 703 625 678 644 581 783 733 717 656 647 692 597 764 597 778 764 603 581 667 747 706 736 697 644 667 556 533 661 547 639 567 694 925 664 656 389 844 436 847 439 861 706 536 661 506 731 681 633 675 758 558 608 878 700 631 561 444 886 811 753 700 686 736 550 811 753 789 678 853 692 700 681 831 781 853 636 603 653 861 700 733 697 800 758 711 678 633 703 667 747 586 739 633 931 578 750 664 672 569 550 706 708 706 736 633
210 256 0.0586 644 619 656 744 642 744 664 636 758 694 836 617 686 783 800 642 731 894 550 714 700 669 739 778 675 564 714 717 622 617 625 739 761 681 714 650 711 622 617 575 356 475 925 625 622 578 664 692 781 714 608 339 661 669 569 564 506 819 744 625 661 589 703 550 531 714 661 672 678 681 614 497 861 672 664 708 692 344 881 783 561 717 642 619 811 767 703 592 728 753 694 361 761 567 733 756 733 700 667 725 658 622 572 1069 758 767 583 725 681 669 617 603 669 789 831 736 569 617 742 733 669 625 694 839 733 436 703 553 686 350 783 708 733 811 639 947 644 819 733 717 831 625 444 864 683 664 708 683 853 494 628 778 689 706 719 569 647 797 481 686 731 608 556 697 644 672 731 758 689 764 586 650 700 797 831 644 642 658 778 681 575 628 408 811 742 625 581 586 683 592 325 956 508 619 672 675 614 661 697 706 717 633 739 756 644 650 747 633 578 692 586 581 664 864 722 583 547 494 817 742 644 653 361 833 669 647 581 706 964 697 639 881 653 683 636 689 647 494 839 572 631 942 847 703 694 767 686 783 639 675 650 611 614 856 647 669
210 512 0.0625 650 825 753 594 731 703 822 769 667 692 764 686 653 639 722 794 556 692 392 822 597 650 722 722 764 750 908 986 700 717 725 728 753 667 808 819 711 558 808 728 703 761 642 678 578 667 672 914 669 789 689 678 681 631 719 703 736 986 675 694 703 608 822 789 767 703 808 750 764 531 633 700 661 797 767 753 731 686 622 686 583 797 808 644 711 581 608 594 558 578 908 719 750 650 589 650 650 611 897 747 617 739 714 689 586 597 583 447 364 522 331 392 394 736 383 886 647 567 717 803 742 669 619 692 1033 669 742 706 794 708 658 667 614 586 592 597 756 667 1111 725 742 717 558 672 728 786 717 644 736 622 644 644 758 725 397 792 647 650 708 350 683 625 819 761 739 592 556 650 725 778 600 550 678 694 686 750 839 689 669 742 739 644 733 942 469 692 367 700 728 731 589 656 750 725 589 681 625 694 842 694 953 1119 697 742 731 647 839 728 656 553 333 667 506 708 842 778 692 722 708 522 939 628 414 800 703 731 633 792 689 633 558 619 817 817 819 650 592 661 694 733 767 633 744 686 428 942 453 736 828 789 717 683 628 572 664 683
210 768 0.0664 658 714 808 658 786 719 619 811 667 614 689 728 739 792 758 756 667 631 769 794 650 683 606 592 331 919 594 803 672 628 722 728 603 547 706 714 717 756 633 631 686 594 406 828 614 694 661 736 642 728 678 683 631 339 686 656 753 672 339 897 603 631 689 619 750 775 667 586 628 694 733 611 614 622 733 700 706 597 675 567 661 878 758 733 758 769 675 614 692 711 908 692 714 753 711 653 953 686 619 694 814 994 867 767 719 614 719 869 736 639 550 642 847 386 708 669 356 819 594 703 831 556 633 386 703 711 667 700 331 939 597 533 464 642 786 772 778 747 578 714 556 594 447 336 867 703 686 733 667 603 706 733 608 722 711 856 772 678 700 728 814 656 933 589 706 728 636 547 656 711 750 675 581 608 542 700 603 531 406 706 644 628 692 542 539 619 689 722 736 664 728 678 678 539 578 650 992 658 872 814 828 636 653 692 700 875 772 697 656 653 656 633 528 661 658 653 803 747 647 642 694 561 344 908 767 844 725 622 558 800 717 603 828 661 567 706 625 508 786 636 750 917 653 892 719 786 450 744 681 914 733 606 800 656 661 697
210 1024 0.0781 681 700 814 683 711 653 678 664 692 672 683 675 625 725 681 606 731 644 869 775 656 578 764 742 614 639 708 650 681 750 639 672 633 672 714 642 586 689 733 686 625 622 706 697 533 622 586 344 711 428 678 733 597 708 761 781 775 689 733 558 647 606 681 947 708 611 703 675 872 714 900 761 600 789 658 767 614 692 683 669 581 686 886 689 650 628 669 650 653 683 639 819 656 356 686 725 725 817 758 658 833 708 614 603 789 714 728 697 581 569 344 372 600 617 711 686 675 625 542 656 547 878 464 681 692 717 681 719 639 647 758 581 722 594 611 783 739 808 822 778 708 608 642 692 758 683 756 736 653 411 497 658 644 658 592 583 303 361 475 356 911 631 650 789 736 692 564 825 844 644 667 778 689 936 717 686 653 719 597 742 658 708 817 733 717 633 653 697 783 728 778 633 639 544 392 642 544 739 597 431 458 814 739 747 733 667 706 711 564 706 711 728 697 744 636 592 672 694 639 917 614 650 672 767 711 622 753 633 572 756 428 642 683 708 731 764 708 694 592 925 614 689 711 658 708 753 706 733 469 719 917 708 639 700 661 636
210 1280 0.0781 683 703 625 756 744 797 656 619 717 625 650 789 483 694 358 744 683 725 839 644 689 581 672 597 733 714 692 686 678 717 686 758 803 497 661 800 622 644 864 761 572 725 886 656 683 644 689 600 672 556 869 661 550 700 558 631 617 731 731 631 706 658 647 733 906 739 661 672 600 611 608 553 681 592 633 778 800 642 706 669 592 769 617 825 447 794 611 644 728 694 367 664 656 689 814 692 678 794 561 322 792 717 817 706 786 606 619 672 658 339 1056 769 608 344 831 628 608 631 517 728 742 686 542 675 678 914 608 664 617 667 636 703 731 725 656 528 583 1486 428 656 706 633 619 531 636 842 578 644 764 597 350 972 431 856 475 742 753 678 586 742 750 575 700 644 850 658 708 706 647 750 667 561 717 664 872 736 606 686 633 667 667 653 611 817 794 708 703 614 575 658 650 733 706 700 700 400 747 575 719 969 775 711 944 542 689 717 747 689 786 692 708 617 706 667 686 722 661 589 356 925 442 917 453 650 642 406 722 453 706 822 419 906 444 800 503 661 742 608 767 775 722 589 711 786 767 719 681 717 689 731 486 656 833 736 711 783
210 1792 0.0703 614 619 800 911 614 603 586 336 858 594 700 731 647 828 683 597 639 700 706 628 717 689 753 706 656 583 558 564 981 458 800 367 703 642 611 639 700 678 686 711 783 817 742 619 642 742 800 753 622 694 1144 711 608 675 675 711 753 633 719 586 711 736 817 689 542 744 661 825 444 292 975 717 1042 661 628 583 572 706 653 644 603 664 653 653 642 611 547 564 339 892 533 775 744 639 714 358 1006 744 403 714 733 656 761 733 733 606 867 861 597 683 744 711 753 564 644 625 681 614 686 353 728 753 661 669 800 819 761 739 714 661 533 611 617 647 683 817 881 631 525 581 678 617 567 725 772 656 683 650 614 669 667 603 689 711 658 575 703 647 628 986 689 881 636 694 622 694 572 642 675 928 519 758 917 733 608 606 597 558 675 836 819 411 853 458 781 592 617 611 708 622 869 753 708 647 633 769 603 717 631 736 650 619 906 603 653 611 733 642 806 719 658 639 625 783 869 942 678 750 642 1050 756 350 981 736 708 614 664 689 622 583 825 989 917 742 569 383 878 667 689 706 347 697 592 761 681 694 611 575 650 633 675 739 722 694 719 542
210 2048 0.0352 697 739 700 619 608 689 514 578 614 656 628 722 728 639 714 800 822 558 614 725 628 617 375 1042 694 631 697 578 692 731 919 667 611 600 642 692 694 742 742 686 639 639 644 528 347 681 711 694 692 814 742 939 644 753 678 728 619 342 717 589 603 575 692 639 686 683 739 694 697 614 714 753 731 589 711 731 678 694 694 703 700 786 703 656 603 572 683 697 664 739 728 647 661 919 558 519 900 639 728 717 722 689 658 603 697 664 561 822 697 733 567 675 742 622 653 550 767 633 703 581 692 717 603 575 694 767 700 803 781 633 617 672 678 703 914 664 669 800 831 661 608 597 789 719 706 736 736 656 744 619 794 722 639 761 603 681 775 631 639 636 719 725 828 594 669 553 664 1100 703 667 622 678 714 967 628 594 344 1014 731 622 694 828 892 608 731 836 686 628 739 725 672 717 581 706 392 756 706 672 667 328 708 664 758 847 700 353 939 861 719 731 728 564 714 853 778 650 639 739 869 747 742 703 747 772 628 778 681 717 614 614 658 778 681 742 644 617 608 731 703 722 661 567 853 686 614 767 467 853 797 678 636 656 611 794 639 586
210 2304 0.0898 683 561 597 869 394 1153 797 739 650 603 553 622 375 653 817 961 717 739 686 617 731 711 647 636 847 678 614 753 411 714 522 644 564 717 739 728 1044 708 803 744 564 678 1256 903 575 575 672 761 558 831 842 711 633 725 714 617 531 722 369 958 644 683 686 561 644 803 628 689 706 781 631 550 733 375 686 642 703 733 689 564 828 658 681 650 669 711 703 675 706 717 619 581 642 564 808 400 906 447 725 797 708 342 542 739 683 667 644 597 703 772 569 694 467 753 625 789 742 775 728 739 728 706 628 778 681 661 1161 836 675 472 681 461 919 392 889 614 578 317 761 411 761 653 514 994 708 614 603 700 736 700 606 650 350 736 653 625 622 356 883 808 631 731 728 875 600 611 678 692 717 678 786 719 639 592 650 700 731 650 336 958 436 928 639 933 739 694 658 572 725 603 642 678 883 772 661 631 647 589 603 692 700 575 769 750 792 500 842 606 667 711 728 717 769 600 639 661 819 697 739 742 697 742 661 558 722 733 753 819 594 625 731 647 661 622 589 736 775 783 644 575 353 697 700 608 1047 794 756 572 697 653 861 656 625 772 675 731
219 512 0.0312 992 867 678 650 675 750 583 753 775 1281 739 914 597 706 869 797 703 681 933 750 639 706 628 744 625 756 597 861 797 636 853 747 633 567 819 725 639 761 764 772 806 794 869 833 800 825 853 664 858 828 850 786 814 689 669 767 869 694 844 814 808 889 739 856 1281 681 1114 903 1261 800 900 681 772 869 781 869 797 847 825 1133 603 681 742 803 806 786 808 828 797 719 906 844 706 1083 864 681 625 989 728 897 644 689 897 797 831 814 719 769 908 578 969 831 606 772 903 844 822 728 881 717 825 839 911 753 828 786 833 642 786 1033 1650 822 819 800 742 764 769 842 1022 950 650 600 811 786 731 728 686 703 556 717 589 672 800 739 939 1272 850 1211 1067 811 850 547 817 803 733 581 978 550 742 806 800 564 1019 839 564 953 850 867 858 803 831 608 783 786 711 653 953 961 725 794 803 594 667 908 958 897 825 914 833 792 886 792 806 872 792 775 628 636 797 914 633 769 714 644 811 839 786 725 583 700 722 781 767 775 781 617 961 781 778 739 853 772 644 933 825 797 700 719 847 939 753 811 817 725 592 658 750 783 658 617 717 767 669 1150 872 997
219 768 0.0234 1008 567 986 561 747 819 683 594 714 761 714 775 689 725 625 803 586 781 875 661 833 747 822 578 822 797 617 822 644 733 817 786 858 736 617 764 739 764 567 742 728 667 772 572 967 589 992 1006 611 667 769 819 986 1053 767 606 833 986 608 792 1064 1025 769 844 736 639 689 733 631 719 894 781 769 1006 764 844 892 869 769 872 714 786 831 886 614 769 781 744 925 781 833 703 706 681 936 883 972 744 875 1103 700 606 869 764 572 908 808 958 703 761 939 1458 797 756 883 694 644 861 764 622 556 1042 592 997 581 636 717 733 633 800 711 817 783 689 653 1253 783 617 836 753 775 647 786 578 911 675 803 850 611 853 633 942 908 875 736 975 883 578 942 617 869 569 878 875 847 561 867 644 933 1306 625 767 658 756 581 600 939 817 858 781 631 711 872 847 553 972 733 667 806 608 847 831 758 736 675 661 928 922 717 850 897 914 736 678 1000 753 933 547 947 569 775 728 536 694 617 867 744 922 833 1092 789 725 706 1064 794 875 778 903 950 728 547 892 575 875 811 611 553 739 750 800 608 794 600 1286 892 811 667 814 872 756 917 803 786 731 636 764
219 1792 0.0195 994 1003 878 717 531 567 772 831 572 892 914 875 825 983 947 717 725 761 622 1186 656 594 900 881 983 756 1022 564 1144 819 781 600 625 933 542 747 797 903 1203 917 764 678 706 553 950 547 864 742 706 703 725 947 856 706 933 894 669 881 872 636 706 786 1119 839 928 933 903 825 608 564 608 714 733 869 1106 922 781 678 767 764 964 908 981 664 664 831 722 844 925 686 764 667 783 878 878 872 917 692 764 647 822 686 1083 989 711 844 833 719 603 764 1197 906 653 828 1044 764 892 739 722 700 811 931 750 875 714 997 606 1019 592 769 758 867 547 903 869 636 708 736 619 719 622 861 878 917 1033 614 681 642 1083 589 886 767 667 894 769 617 800 814 844 733 769 600 914 1000 936 825 842 822 994 822 725 814 847 975 858 700 825 961 878 711 1011 753 717 603 717 781 614 764 708 789 589 772 1158 939 836 806 747 917 736 761 800 578 936 875 775 939 747 1178 778 822 853 608 772 725 1319 1072 853 908 606 878 1208 861 731 786 919 800 928 717 842 914 775 1058 603 719 767 839 806 806 828 1028 869 694 586 761 789 833 853 786 744 703 1228 694 664 836 822 831
221 0 0.1875 617 447 892 881 525 1039 722 811 456 847 664 1281 758 917 1003 969 706 731 506 864 697 700 447 1019 933 825 492 1061 639 681 750 1194 744 753 883 753 742 486 858 717 822 481 819 675 978 789 497 808 669 725 683 828 722 458 1019 644 744 697 1258 1078 753 642 706 633 819 719 817 869 542 1033 639 775 408 994 719 919 686 742 619 714 453 919 728 931 1217 942 711 669 772 883 511 886 689 647 447 772 689 769 461 1056 739 633 633 428 1364 736 853 883 481 850 647 606 681 1178 683 1019 764 494 1050 747 475 881 731 739 672 439 808 719 1231 719 753 531 1047 644 672 447 1239 694 897 747 694 842 875 442 828 686 675 492 931 900 622 594 475 1061 889 483 833 656 628 603 656 817 481 919 756 508 894 683 803 453 886 753 669 694 456 850 739 478 733 775 856 500 806 617 611 447 939 1361 892 467 825 808 469 822 756 672 961 753 700 756 1017 686 658 483 956 686 764 592 811 681 1269 722 642 494 897 636 661 444 811 650 778 728 1164 653 686 439 875 867 481 1264 794 456 900 661 636 692 475 800 661 639 436 881 628 700 472 1103 1264 839 453 847 689 767 489 811 1331 919
221 256 0.1914 675 1236 894 653 928 828 464 939 878 778 792 500 975 653 697 469 908 1444 786 472 819 669 625 622 708 717 550 994 775 778 481 719 592 664 483 894 692 1025 742 486 881 611 636 872 483 961 917 453 892 653 614 708 475 919 617 831 828 431 931 683 703 497 844 683 636 450 814 708 972 500 997 636 719 450 1142 481 906 708 1158 686 642 694 617 586 622 667 789 728 464 825 606 614 492 1089 700 678 464 911 636 700 742 656 642 486 972 644 756 797 450 917 647 597 664 519 822 567 803 689 611 483 833 794 483 1000 678 644 597 494 836 764 514 836 719 772 456 875 781 464 1011 908 472 1172 658 583 619 483 839 678 658 456 800 850 456 811 1756 647 689 450 833 586 992 725 811 481 1039 767 436 714 653 742 511 811 669 689 778 1014 619 658 719 622 633 503 756 619 861 1383 844 483 972 658 636 842 642 642 461 989 694 825 886 428 842 711 681 683 769 1103 1214 639 689 1289 669 878 1164 850 789 481 969 628 611 664 481 911 1175 775 481 1031 614 628 728 656 736 642 667 522 1017 742 497 911 903 600 622 689 472 847 1214 633 592 450 756 1258 778 764 481 919 586 631
221 1024 0.1875 636 447 842 642 711 633 625 717 681 542 656 625 939 772 647 489 825 689 631 456 792 575 686 458 1000 1156 1136 661 656 475 764 561 722 497 1017 1339 1003 1039 700 672 692 472 783 644 667 656 647 486 819 878 731 639 658 997 1328 1367 747 436 875 694 653 992 758 506 597 372 978 708 622 661 456 1092 669 1142 606 1042 678 650 781 842 481 1178 850 633 669 722 467 1383 700 461 814 675 1119 725 692 689 461 817 475 861 1128 703 822 811 472 1394 667 594 664 467 817 689 636 950 714 469 933 1111 933 903 1283 992 611 878 578 789 661 625 464 808 750 453 1089 678 706 497 778 606 642 447 456 483 850 1042 983 708 628 681 856 467 900 1011 664 611 589 447 800 628 747 1236 822 444 975 686 614 819 639 739 1144 692 769 453 728 631 758 481 936 644 567 500 742 589 647 522 817 717 814 617 906 697 650 469 831 703 842 447 928 583 536 786 658 683 506 875 664 656 656 736 700 792 736 694 464 994 625 719 667 614 636 503 989 775 447 969 703 878 628 631 800 478 792 858 431 1169 781 650 617 469 1394 1353 942 906 722 672 631 608 442 819 744 475 1381 722 639 503 1022 586
221 1536 0.1914 669 725 464 853 656 1281 853 608 628 844 472 911 714 625 622 464 847 786 442 811 678 739 497 1025 658 681 461 1133 811 1239 1203 700 450 831 617 672 492 1000 900 456 944 644 650 481 1072 672 697 483 908 800 458 1486 683 650 853 586 783 658 664 692 467 1031 461 869 717 625 633 792 753 728 819 892 647 739 1125 656 700 744 464 825 608 792 847 461 978 733 725 461 881 631 614 661 450 903 722 497 947 692 658 464 1011 911 678 642 706 433 883 853 697 1119 942 881 689 661 808 853 453 922 700 689 506 747 614 914 644 614 556 1267 1214 642 631 1186 675 728 853 686 797 511 872 453 789 661 622 536 836 672 1164 944 850 492 900 1128 611 625 467 731 728 514 847 694 769 444 844 661 889 711 675 775 450 811 736 486 833 1183 733 739 1150 650 786 447 1556 1217 772 453 867 869 444 858 925 675 678 478 814 894 447 919 703 1361 1328 622 1014 1161 681 731 486 1150 672 692 456 1122 1317 736 800 442 1119 672 625 958 894 725 464 800 864 447 875 992 697 719 475 814 600 683 478 856 811 725 481 800 631 753 431 922 678 697 853 733 711 700 917 1369 1572 692 464 969 614 597
221 1792 0.1094 1306 1175 650 714 453 1011 1111 611 656 667 483 869 644 611 703 656 625 647 808 739 925 597 619 803 714 1136 1253 722 497 728 672 883 697 1194 725 1053 1194 647 642 906 733 872 928 433 1306 742 892 758 425 1078 681 889 631 672 1331 1306 636 831 667 633 753 694 703 867 1244 711 458 1183 761 692 483 833 528 1025 625 881 692 761 1261 719 461 833 639 714 750 742 775 669 950 900 708 781 933 739 831 456 861 694 661 872 1228 867 447 1161 1247 731 803 972 800 1194 653 1200 1531 683 722 442 1031 1117 906 911 569 1050 678 808 1406 742 497 911 961 672 969 950 786 1178 778 722 481 958 889 450 817 711 867 483 822 717 447 894 761 839 786 847 806 653 825 464 1058 1333 717 797 878 725 756 1503 956 719 733 717 686 664 697 467 961 722 667 1464 908 750 717 508 897 622 667 619 644 1097 969 675 833 728 633 717 1092 731 475 1183 1467 889 639 475 1186 778 664 508 731 625 639 697 619 636 669 483 958 719 789 767 881 872 847 822 672 639 664 900 886 469 1003 717 469 1464 689 917 714 1222 1114 892 669 756 839 711 956 747 683 681 758 664 556 1008 700 728 678 664 1111 928 778 817
221 2048 0.0664 842 728 508 994 878 672 758 864 964 717 644 822 1008 686 986 922 703 756 656 731 847 694 1117 778 478 1433 664 450 1028 794 850 714 1153 725 1125 822 489 906 886 647 750 653 861 711 814 897 686 681 819 642 692 917 847 731 1111 803 439 994 728 725 889 806 475 817 1200 692 661 864 1392 689 625 511 736 803 742 886 678 881 644 619 614 456 864 1283 1150 1044 686 617 722 808 681 669 767 900 697 672 1167 1014 789 725 739 625 428 869 694 714 789 753 1100 678 814 742 722 897 1425 864 617 667 619 661 661 936 689 644 633 689 764 706 1050 1286 683 644 622 844 717 869 744 667 633 617 592 442 922 911 1247 697 497 706 592 592 628 642 478 1067 647 661 703 897 683 1086 736 475 1033 728 808 697 1094 808 489 1083 631 617 708 725 1089 728 472 919 644 622 689 642 650 667 1250 822 647 742 667 867 797 683 925 883 747 753 669 608 636 728 817 719 750 653 736 428 911 719 900 672 703 622 633 647 669 1172 736 722 672 725 706 644 647 775 692 900 719 650 608 714 703 664 1083 678 661 692 867 778 686 464 978 808 708 772 931 1114 950 722 797 883 647 639 608 686 1189 733
