# physionet r-r rhythm segments, distilled
# source PhysioNet afdb / nsrdb / mitdb, ODC-BY 1.0
# class EctopyBigeminal
# segment_beats 256
# selection every 1th of 32 segments in this class
# columns record start_beat premature_fraction rr_ms...
# lead chest, ambulatory Holter ECG - NOT wrist PPG
106 768 0.4766 1119 839 839 808 500 1044 497 1097 506 1144 808 508 1083 489 1192 811 775 867 522 1047 750 731 478 469 1214 808 497 1072 483 1039 783 819 519 1136 775 489 472 1061 503 1033 747 514 511 1047 475 903 522 931 536 900 506 894 483 850 458 897 478 997 483 997 472 919 450 972 486 1017 500 1028 461 950 472 906 525 911 489 942 494 914 456 914 456 972 503 989 478 911 444 861 444 911 481 908 481 897 458 883 442 936 442 978 472 956 481 869 439 864 472 936 478 939 456 917 428 889 453 922 464 978 481 1014 450 967 442 986 478 1056 503 981 461 894 469 917 489 936 497 928 475 894 464 922 464 1008 483 1061 519 931 497 906 514 925 553 944 497 972 464 981 469 1078 494 1158 497 1133 467 1122 483 1269 511 1192 492 1181 489 1219 508 1203 525 1114 492 1017 494 1125 514 1219 514 1142 478 1172 528 1211 533 1103 531 1033 503 1144 522 1194 544 1144 481 1089 533 1097 550 1097 508 1042 489 464 1175 492 1114 506 514 1142 439 1094 489 1092 561 1042 522 947 475 992 511 1061 494 1056 489 1075 481 1078 497 1131 550 1067 494 961 722 531 511 1206 519 1069 506 1036 497 1133 558 1092 786 742 725 508 469 1092
106 1536 0.3320 1000 1056 1092 1064 1003 942 969 1000 1039 1086 992 1000 1053 1072 1089 1064 997 956 942 989 981 1019 1008 942 1017 1097 1044 1050 1000 956 1028 1111 1117 1100 1039 1133 1133 1136 1103 1022 1042 1058 1108 1172 1061 1086 1067 1103 1150 1083 1069 972 1097 1114 1044 969 869 864 844 886 875 836 831 811 839 839 864 839 856 906 519 1186 872 544 1278 969 522 1186 553 1172 586 1203 533 492 1247 475 1269 511 1306 539 1258 481 1167 497 1339 553 1281 508 1247 486 1269 533 1306 536 1183 489 1131 508 1264 531 1281 489 1214 492 1283 536 1317 525 1233 486 1144 519 1250 528 1206 486 1078 503 1228 514 1281 511 1197 500 1281 550 1294 536 1225 503 1186 533 1239 925 536 531 1250 514 1206 892 544 522 1297 486 1217 486 1269 567 1281 553 1181 497 1150 550 497 1294 506 1264 489 1164 503 1283 531 1211 500 1178 494 1228 539 1228 522 1156 492 1172 517 1269 539 1275 514 1217 511 1275 544 1308 522 1172 508 1278 558 1272 528 1239 556 1167 506 1314 564 1311 506 506 1231 525 1286 556 492 1308 500 1303 517 494 1433 1072 978 528 461 1350 1158 564 500 1336 494 475 1356 1092 964 1014 542 481 1283 1097 1139 1103 1064 1147 1056 992 1025 1117 1006 1081 1169 1136 1150 1161 1183 1244
119 1280 0.3242 519 1239 906 861 886 867 528 1269 892 519 1250 872 508 1225 858 525 1189 842 539 1194 550 1183 561 1192 539 1169 522 1175 825 803 797 531 1197 544 1164 839 819 836 522 1197 822 833 819 517 1167 522 1136 803 519 1067 794 750 525 1053 769 767 539 967 744 550 989 617 711 778 742 517 1122 822 517 1281 897 517 1417 983 497 1450 967 958 925 928 547 1383 539 1353 539 1353 536 1303 897 903 886 867 544 1311 928 514 1322 536 1306 878 517 1317 889 881 547 1303 508 1303 533 1353 908 931 547 1342 925 917 533 1358 536 1331 931 533 1331 533 1347 944 514 1353 947 531 1297 928 531 1300 936 525 1303 553 1225 522 1267 867 864 903 947 525 1450 550 1472 611 1367 544 1442 508 1333 542 1317 547 1311 908 919 519 1331 531 1417 922 928 919 925 522 1367 953 542 1367 947 961 528 1317 533 1353 553 1342 956 936 536 1336 536 1367 553 1322 539 1361 542 1319 531 1314 558 1267 539 1239 831 828 775 800 839 819 817 894 894 872 933 950 928 958 978 975 958 531 1422 550 1364 528 1297 586 1267 875 525 1214 878 528 1194 544 1244 822 858 875 892 919 536 1314 539 1331 542 1317 536 1336 542 1303 908 525 1225 553 1197 844 822 517
119 1536 0.3008 1203 542 1169 864 522 1267 894 528 1311 539 1311 542 1419 544 1400 986 547 1364 986 525 1375 564 1364 953 531 1350 950 917 525 1347 547 1358 939 908 553 1333 553 1378 919 542 1358 953 925 900 533 1386 942 981 925 911 561 1336 567 1350 922 550 1303 897 881 536 1286 533 1211 883 533 1200 556 1242 892 892 528 1381 547 1331 569 1294 931 528 1253 906 519 1239 894 522 1303 906 531 1294 889 539 1239 531 1281 553 1242 869 872 894 919 528 1364 564 1378 531 1347 581 1289 608 1244 547 1267 558 1272 867 869 856 886 900 908 956 953 936 978 967 975 992 939 986 967 925 947 961 975 522 1411 561 1358 572 1333 575 1311 567 1267 911 531 1264 889 881 547 1225 550 1178 531 1064 767 519 961 750 722 711 722 731 544 947 775 525 1028 553 1033 758 750 556 1061 594 1047 803 853 544 1183 878 897 544 1333 981 947 933 528 1456 953 931 528 1383 931 942 906 931 936 850 853 528 1128 542 1244 858 842 589 1203 536 1278 867 881 536 1253 542 1156 797 797 528 1144 794 797 783 528 1094 567 1097 825 806 544 1111 822 828 867 844 522 1367 525 1392 906 528 1331 931 514 1411 1019 539 1433 558 1408 1006 542 1433 528 1469 956 922
200 0 0.3086 728 561 764 508 794 492 756 528 719 486 772 569 864 511 706 658 628 597 639 650 706 686 622 600 739 550 728 475 994 511 542 1233 486 889 508 414 1233 594 906 703 650 664 658 633 642 636 711 667 839 569 992 497 422 1306 586 1022 719 494 1014 506 903 514 925 742 528 861 514 789 483 911 539 942 511 872 672 525 844 483 858 511 919 586 867 464 750 511 831 511 919 717 650 672 625 708 708 669 675 706 636 772 586 872 467 550 1094 578 897 531 1014 494 1017 514 989 522 1003 564 975 650 631 453 864 531 944 542 811 494 839 531 869 475 914 744 750 753 697 692 700 792 803 825 981 564 994 511 1014 528 1033 647 939 533 878 486 886 528 458 853 1136 492 864 558 764 531 1047 544 969 736 522 839 500 844 572 947 550 856 519 844 514 900 528 906 514 939 631 533 903 533 869 517 919 933 850 714 778 781 772 758 764 742 750 733 683 686 683 794 828 775 658 669 689 689 700 739 744 686 719 764 669 653 669 694 692 767 775 675 664 664 711 711 750 728 719 694 711 714 667 678 658 736 800 750 669 653 672 686 692 725 731 525 628 972 517 647 856 494 908 547
200 768 0.3008 714 786 892 819 747 742 736 728 747 789 758 711 731 767 692 692 675 714 725 803 792 689 678 667 753 750 761 678 694 694 678 692 711 683 692 772 839 728 700 672 667 647 728 811 742 731 711 589 861 536 858 558 883 581 908 622 750 486 811 586 906 586 800 511 778 517 817 544 650 853 608 881 528 811 492 731 525 892 578 925 517 792 517 850 525 892 622 722 583 925 517 908 525 806 578 1047 681 831 525 814 481 892 736 681 864 464 492 1194 550 794 694 700 767 608 853 506 750 489 908 581 914 531 828 539 808 675 678 644 722 694 756 719 681 622 656 653 706 772 772 650 742 542 900 497 442 492 1169 628 1089 536 881 644 642 714 764 753 650 656 661 522 733 536 839 622 739 617 769 653 647 539 658 553 778 586 522 964 561 661 639 689 597 786 528 769 642 636 556 731 536 678 650 719 603 467 922 619 600 511 736 558 808 681 614 528 750 650 583 517 744 692 650 583 756 508 742 572 614 581 811 572 769 633 639 494 653 522 792 689 631 611 792 542 731 567 572 553 697 564 853 650 622 589 617 658 617 594 675 569 775 500 728 667 608 619 572 639
200 1536 0.4766 642 922 700 678 694 614 769 750 694 756 811 694 689 661 706 719 819 694 789 1056 544 1103 533 1189 567 1128 533 1031 600 878 508 1014 786 861 531 811 542 858 550 1019 561 469 564 542 572 889 547 856 539 914 578 919 528 819 483 908 619 992 556 883 544 853 514 939 550 961 550 1031 558 903 494 919 619 944 661 936 533 417 1219 569 1036 544 553 397 325 886 519 1194 547 1011 644 925 1083 511 986 494 1081 633 1111 600 897 675 794 531 883 578 467 1181 578 839 514 781 572 983 594 878 681 522 781 558 828 533 767 497 1042 564 889 486 492 589 1150 572 972 544 814 503 897 525 947 547 892 531 842 542 839 519 836 581 1036 550 478 1064 492 844 728 775 753 664 719 719 744 522 733 594 419 1322 569 1083 594 764 619 911 797 606 842 550 789 519 850 586 917 544 928 597 556 1025 503 881 561 928 600 914 547 772 519 950 578 492 1139 550 839 567 844 492 794 544 914 639 886 528 697 503 903 581 997 547 875 528 469 1078 542 781 556 817 556 936 572 817 533 789 578 992 633 847 525 808 514 808 600 833 550 842 592 811 550 728 519 803 547 892 619 850 539 753 536 831
200 1792 0.4844 567 919 558 911 536 756 567 878 533 783 608 986 561 789 528 756 492 858 608 872 581 786 528 825 533 828 539 831 547 831 561 797 525 717 525 914 617 878 508 722 569 792 522 856 531 853 542 869 572 783 461 781 572 744 583 1019 519 839 503 889 569 925 556 889 567 819 533 886 528 781 553 1081 600 939 483 744 550 428 1253 583 983 739 708 750 678 558 800 581 850 575 539 942 519 736 544 878 589 878 522 733 550 706 542 839 556 831 544 822 583 794 533 728 533 806 628 917 536 789 486 733 581 897 617 822 528 806 542 781 542 794 536 839 617 811 569 858 489 900 758 778 803 733 558 733 667 844 578 864 569 783 581 981 522 853 531 511 1175 642 956 608 753 500 889 600 814 597 1075 561 953 553 781 525 847 606 900 556 778 481 828 567 906 600 772 539 869 522 842 675 603 733 711 775 722 700 519 714 600 808 581 867 553 869 514 892 550 814 522 842 583 764 550 833 506 692 519 892 611 856 539 742 506 742 564 814 569 872 561 406 1075 519 806 503 744 569 878 603 856 511 761 508 714 631 1003 589 806 558 711 544 825 533 847 536 836 636 828 542
200 2048 0.4102 661 517 844 558 906 636 764 514 739 553 500 986 553 822 594 722 528 817 622 642 597 678 775 728 700 594 597 636 533 472 981 550 819 519 753 586 797 533 742 542 814 564 836 581 703 486 717 583 878 581 836 572 769 481 783 569 811 578 817 594 869 542 789 500 719 561 864 600 925 522 764 508 828 564 875 569 836 567 747 550 856 503 800 531 864 639 839 525 703 511 750 561 828 622 825 508 775 583 750 544 736 572 794 522 825 586 725 508 686 544 864 578 867 517 542 806 642 547 803 678 647 656 747 708 656 597 642 681 667 744 758 564 717 503 861 558 519 653 1133 511 839 633 731 544 775 500 853 625 892 550 761 500 797 494 908 833 744 689 583 744 761 733 672 728 664 861 556 1058 517 869 792 825 769 700 689 569 647 961 692 461 1250 508 1106 744 444 978 542 1017 803 614 825 508 769 567 536 1125 539 864 575 733 525 961 508 867 583 1000 592 892 475 803 561 972 583 1008 681 478 925 592 847 575 894 750 569 1042 567 992 508 1014 950 858 778 725 750 711 756 839 803 731 728 631 992 553 986 578 1089 656 939 603 358 1239 658 906 817 706 703 650
201 768 0.3047 1625 1214 844 1453 1153 1031 1328 1161 889 1464 1281 1261 1211 1247 1250 1297 1250 1136 1161 1247 1206 908 1417 561 1244 1239 1239 933 1389 1228 889 1531 1183 925 1339 1247 1011 1331 1153 950 697 1517 1236 1136 939 1453 1267 928 1392 1108 1011 1325 1242 903 1347 1183 1031 1347 1194 892 1414 1236 1014 1269 1139 942 1358 1228 947 1222 1144 947 1331 1219 861 1433 1197 953 1464 1139 881 1431 1161 1036 1300 1186 883 1589 1197 881 1394 1200 947 1339 1167 856 1294 1239 917 1328 1175 850 1439 1239 881 1406 1136 922 1461 1178 872 1278 550 1264 1217 944 1228 514 1314 1214 1200 917 1381 1189 889 1431 550 1203 1125 1178 964 1342 511 1269 1158 1275 897 1536 1192 1875 1250 1228 822 1428 1233 553 1367 1194 1172 739 1183 1292 836 522 1014 1208 569 1375 1222 1194 844 1511 1275 1225 806 1517 1172 1203 1028 1331 1147 1200 1019 736 1431 1172 1175 944 1456 1169 897 1353 1206 928 1367 1181 831 1406 1247 906 1394 1164 892 1528 1233 889 1364 1178 983 1336 1125 933 1250 1219 975 1283 1122 939 1433 1181 972 1319 1150 922 1444 1161 900 1261 1214 936 1356 1147 889 1292 1239 947 1358 1169 869 1375 1197 936 1231 1161 872 1425 1181 856 1411 1192 908 1519 1114 831 1406 1208 906 1364 1136 872 1414 1231 878 1361 1175 906
201 1024 0.3125 1394 1219 783 1336 1181 967 1283 1181 722 1492 1250 1211 803 1453 1208 1222 878 1492 1125 1106 928 1461 1142 1075 922 1389 1231 1161 861 1411 1264 1267 786 525 997 1192 1225 858 1556 1117 1128 919 1444 1164 1167 872 1406 1233 1217 828 1417 1211 1189 931 1375 1158 1150 992 1458 1194 1108 972 1392 1225 947 1219 528 1319 1236 944 1378 1175 842 1464 1144 1011 1114 1203 964 1347 575 1203 1092 997 1289 1217 861 1297 1197 1047 489 1383 1083 958 1164 1131 1119 1031 1047 1089 1161 1022 1267 1086 1014 1286 1189 1075 1208 1128 1089 1267 1192 1028 1164 1144 1106 1197 1206 939 611 1350 1247 1189 950 1250 1208 908 1375 1200 892 1256 1289 936 1347 1139 950 1244 1206 1050 1106 1150 964 1375 1169 994 1203 1197 978 1408 1136 947 636 1392 1250 1172 978 1267 1242 994 1294 1072 1011 1156 544 364 1033 1153 939 1292 1247 989 1397 1156 922 1217 1114 508 1283 969 472 1264 558 1158 1242 997 1011 953 517 450 972 1100 1081 1294 2003 1403 1253 1233 1297 1372 522 1528 569 1469 1956 911 956 1086 1133 1303 1244 1172 1133 1158 1250 1194 1025 556 431 919 1203 1056 642 1417 1131 1161 1083 1364 1131 1039 578 436 956 1203 1069 1267 522 1317 1214 1036 1275 1136 986 1314 1239 969 1269 1122 1067 661 422 1050 1153 1131 1161 1086
207 0 0.3945 728 1453 675 1417 647 1447 697 1439 683 1389 653 1514 700 1444 664 1422 689 1475 700 1414 658 1389 714 1447 689 1350 686 1369 694 1419 692 1383 664 1389 733 411 1025 694 439 383 719 11953 681 1414 7050 739 361 422 606 808 911 678 1197 994 919 886 864 728 1128 653 1142 681 1119 908 706 397 1486 689 417 944 1089 669 1331 733 1194 981 917 944 981 967 983 736 1089 975 1003 1022 956 944 958 928 981 986 981 967 928 908 994 1019 947 969 944 931 978 972 981 961 919 914 903 969 975 931 928 928 892 936 947 939 733 1086 619 1122 803 422 753 633 1172 600 1239 633 1294 661 1281 622 1208 611 1350 642 1292 631 1275 614 1300 669 1297 653 1264 603 1364 672 1294 644 1278 631 1325 658 1339 642 1292 608 1353 667 1350 622 1306 625 1292 650 1358 633 1333 603 1333 661 1361 622 1322 606 1344 661 1372 633 1336 614 1317 589 1461 556 1392 642 1294 581 1458 572 1417 583 1356 597 1458 594 1369 603 1350 583 1481 578 1406 544 1394 583 1489 564 1428 561 1383 586 1478 575 1431 550 1386 589 1450 558 1419 561 1403 661 1406 578 1389 550 1397 583 642 1064 5811 14739 675 1461 1000 983 675 381 1681 12550 811 1200 653 1111 850 828 861 861 833 811
208 0 0.3398 453 761 594 433 911 547 558 781 550 511 878 525 508 753 583 542 778 586 458 842 558 494 700 606 428 919 572 553 764 547 458 633 500 550 564 558 544 472 597 542 542 458 575 494 492 486 586 550 528 478 544 506 506 469 561 475 531 464 606 550 581 594 569 536 539 519 492 544 569 550 472 628 531 506 592 547 564 561 578 503 708 617 525 622 564 556 558 539 544 592 578 564 450 669 569 519 539 517 517 450 744 586 478 708 558 467 611 556 531 425 683 572 511 708 575 544 600 564 528 467 811 569 475 783 564 439 686 556 503 614 536 561 775 653 589 469 836 531 458 814 575 483 650 561 567 572 581 553 453 839 514 531 731 586 453 669 553 564 575 567 519 569 597 608 464 783 572 447 692 561 447 689 581 508 619 567 550 461 636 542 531 503 553 628 467 917 517 478 817 542 469 667 603 489 908 581 500 933 503 492 864 517 533 797 589 442 847 544 497 800 517 461 772 592 469 850 561 472 714 572 417 775 578 467 781 553 456 719 561 442 675 567 486 744 608 481 675 581 506 767 542 442 919 547 519 881 539 503 689 583 389 822 594 503 733 553
208 256 0.3125 464 714 567 475 639 608 528 822 639 425 872 522 483 844 528 494 703 606 450 825 594 456 747 550 408 783 583 469 739 564 464 678 578 522 683 594 461 867 622 444 744 567 453 689 550 522 639 586 572 458 811 553 453 647 514 517 547 558 558 472 564 511 533 453 636 519 511 561 581 583 464 722 586 436 750 542 417 744 586 453 772 561 447 736 558 436 717 533 467 747 594 458 675 561 447 700 558 406 708 578 464 669 547 556 578 542 539 544 528 564 475 767 581 433 733 561 447 644 506 536 564 611 572 475 811 542 433 675 550 486 583 561 553 458 611 511 544 447 589 506 489 450 647 572 550 550 533 558 439 725 550 428 653 569 567 572 581 575 442 814 514 433 731 572 475 672 558 497 631 597 542 672 544 436 769 597 453 714 564 467 617 561 567 594 583 589 500 769 567 439 731 542 422 636 572 522 608 544 544 461 728 553 442 653 564 506 658 600 581 458 836 522 447 808 539 500 753 567 442 675 572 486 636 553 469 656 608 528 753 567 439 722 575 447 692 558 483 639 556 564 458 756 556 431 681 578 539 642 581 564 458 847 536 444 725 536
208 768 0.5039 847 611 478 867 597 444 792 586 431 831 564 464 922 614 472 783 575 442 769 544 458 703 583 581 611 647 569 550 892 517 508 1039 572 528 886 553 503 897 506 511 947 558 558 914 544 503 867 536 497 900 569 503 900 550 522 892 503 533 847 622 478 794 572 458 867 539 478 911 553 531 853 592 458 814 531 467 903 569 522 922 528 500 822 547 461 842 558 514 986 553 486 925 519 489 983 544 514 1003 531 500 914 528 469 842 564 536 931 536 483 850 539 458 844 550 492 961 581 478 842 533 494 742 558 458 956 567 461 925 556 469 847 511 483 803 628 442 828 569 453 900 542 442 894 567 478 856 564 486 867 525 469 847 581 478 792 572 453 664 553 514 536 506 569 481 942 547 483 917 522 464 772 581 456 906 556 494 947 525 450 897 514 481 883 606 469 778 572 433 844 531 456 869 581 500 803 597 431 811 542 444 919 567 503 850 558 464 811 569 450 744 592 472 858 589 433 894 536 503 775 581 456 847 600 481 828 575 447 783 536 456 883 603 478 792 589 458 839 539 433 839 578 525 786 586 433 739 569 453 794 606 456 831 583 433 814 569
208 1024 0.3633 422 756 581 481 828 606 431 758 575 422 775 550 442 769 589 464 739 581 461 747 564 442 775 581 483 769 558 683 794 522 444 861 547 497 697 550 539 525 519 503 511 525 494 542 550 583 606 572 489 778 558 453 689 583 492 744 589 522 622 583 581 444 781 564 531 650 594 572 550 558 567 447 714 578 494 767 617 450 853 603 433 728 556 431 711 619 547 772 589 447 903 544 453 806 578 489 781 594 469 758 578 414 769 594 469 811 583 458 717 583 439 758 553 428 844 600 503 781 564 431 800 556 431 833 592 478 786 594 456 781 542 453 736 572 472 761 586 453 722 586 456 731 536 439 750 603 464 869 561 467 758 569 417 756 600 456 836 569 450 856 542 458 756 592 492 858 608 450 800 575 439 789 564 447 867 619 481 872 558 497 761 561 439 925 581 525 833 606 472 764 578 397 844 619 458 853 592 456 786 594 442 786 614 450 853 589 464 814 586 431 819 581 522 939 544 503 811 575 447 819 617 422 936 592 486 842 575 436 825 578 442 872 625 469 803 622 481 797 561 431 858 639 444 878 567 456 886 556 469 861 581 492 864 589 519 781
208 1280 0.3711 567 453 772 606 469 808 603 431 878 547 492 769 597 436 864 622 486 803 581 444 775 583 436 911 556 503 903 544 483 769 550 433 814 628 453 894 539 492 869 531 433 811 617 458 808 611 431 789 564 478 786 611 456 806 606 431 772 603 411 822 536 508 944 567 475 769 581 419 775 581 433 875 567 508 828 592 453 731 569 403 811 617 464 783 581 431 836 558 489 744 597 458 811 611 431 800 561 481 761 583 469 808 600 444 808 592 447 822 556 444 878 617 450 783 583 447 797 578 431 761 592 478 753 592 453 828 586 439 789 606 472 811 597 431 889 581 453 736 586 456 883 600 500 881 539 500 825 567 439 853 625 447 869 617 444 794 558 433 894 614 464 842 592 458 817 583 406 797 608 481 847 592 442 736 581 439 708 636 525 769 603 494 922 581 442 867 567 492 717 581 542 533 539 567 586 556 558 614 431 861 606 447 669 542 525 464 708 611 592 578 575 581 458 644 547 533 481 611 606 661 456 903 550 486 783 578 458 692 594 592 486 856 597 464 725 575 447 756 619 567 708 592 594 461 800 578 408 797 622 464 828 606 511 647 608 569
208 1536 0.4336 753 672 597 639 853 569 531 903 542 472 861 631 503 794 608 450 578 972 511 722 633 606 558 900 556 722 622 542 561 936 575 525 928 567 728 603 564 469 853 631 469 1006 547 772 619 606 467 764 622 506 700 589 572 467 686 564 600 706 669 589 533 942 539 497 939 519 494 825 647 464 861 556 492 928 519 547 950 561 531 947 544 736 636 533 781 706 606 806 661 586 789 583 450 1000 564 600 769 622 583 483 850 536 572 1039 553 817 639 628 653 636 508 894 650 472 978 544 514 753 578 456 853 586 553 897 569 678 631 544 758 661 583 817 672 544 761 644 553 647 564 594 558 719 664 525 864 631 467 486 467 625 653 472 564 417 650 631 481 875 525 544 947 583 681 614 600 475 906 525 539 850 603 650 689 606 558 758 608 581 811 686 567 806 697 544 761 594 564 750 672 597 722 658 544 842 611 489 458 492 644 631 458 642 444 589 600 461 836 614 522 844 581 514 614 564 575 514 758 667 525 983 544 714 617 600 547 781 672 578 808 703 561 847 608 475 514 444 583 694 444 1089 572 731 617 550 714 714 575 894 683 461 481 458 636 606 750 681
208 2560 0.3750 600 625 633 572 628 544 533 464 664 625 600 581 553 583 600 639 603 522 653 672 592 742 581 614 650 647 589 614 644 583 814 644 567 772 606 539 742 694 567 769 669 558 756 644 547 722 625 578 833 628 561 756 644 531 733 689 561 822 692 575 819 628 539 767 639 581 819 672 542 753 681 533 839 606 792 697 567 764 661 533 756 631 561 819 644 578 819 642 547 506 928 553 800 658 558 758 631 542 814 647 531 514 431 711 672 456 522 439 678 553 778 722 572 919 600 494 972 525 789 650 606 797 703 539 839 592 542 1033 533 881 672 414 992 531 747 600 597 664 706 561 928 572 803 678 472 478 442 692 600 864 664 456 506 475 681 517 864 706 406 1033 556 767 606 544 650 622 606 806 647 553 783 678 542 744 647 583 814 653 581 719 672 536 753 631 619 594 617 617 639 608 606 614 594 578 889 686 422 964 550 836 611 456 922 547 875 661 431 925 517 764 625 586 633 919 519 853 608 528 1036 706 717 739 425 492 494 767 542 936 567 883 617 533 1069 553 544 922 517 761 672 569 803 642 483 511 458 669 508 858 622 947 597 511 1050 517 928 617
209 768 0.3398 689 694 661 650 642 633 631 617 661 683 667 644 639 661 528 750 611 667 669 661 672 642 633 650 628 608 656 694 683 644 636 653 625 631 636 611 658 658 672 661 650 478 731 653 603 639 667 661 656 639 628 508 731 636 625 628 667 656 631 642 633 644 628 603 658 686 683 658 633 628 614 533 667 633 650 633 633 625 656 469 392 569 750 667 669 650 658 631 625 619 603 603 539 711 664 647 639 567 703 642 636 622 497 786 658 672 650 633 619 622 617 611 656 669 669 628 631 628 631 647 622 658 664 667 667 653 650 647 633 597 639 686 678 650 644 642 575 661 625 622 656 661 656 631 644 647 625 617 594 647 600 739 672 664 647 414 358 389 433 550 469 392 403 389 392 394 369 389 367 383 381 375 386 378 353 381 378 381 392 394 392 403 378 386 381 361 367 364 356 361 336 375 383 389 400 389 383 386 367 367 372 372 372 369 361 361 356 369 386 392 383 394 369 381 378 378 386 369 369 369 375 356 350 375 392 400 386 406 528 608 592 608 583 611 619 661 683 683 689 694 658 658 631 600 481 783 678 664 619 628 608 611 611 431 372 394
209 1024 0.3281 383 375 389 386 383 383 383 389 381 381 389 372 361 383 386 389 392 378 394 381 367 389 372 378 369 361 369 358 336 375 381 386 400 383 386 392 358 358 364 367 372 369 358 361 339 356 394 372 383 397 375 386 383 383 394 489 544 542 519 556 608 633 678 664 683 706 686 681 686 694 697 686 678 661 631 611 628 606 642 661 483 778 631 619 606 608 597 628 650 628 628 633 608 625 508 694 594 617 647 597 697 614 608 603 469 678 614 661 669 647 633 617 628 622 606 592 619 650 597 694 631 647 606 508 686 606 653 642 536 717 617 636 614 619 594 592 628 614 619 619 617 594 592 592 572 608 625 642 656 619 614 600 617 625 586 631 589 683 642 608 628 619 600 606 581 633 658 656 639 603 611 619 597 589 617 650 639 625 617 633 633 600 608 586 597 675 642 653 631 619 614 592 608 494 728 664 625 625 528 681 619 614 594 458 711 661 664 644 617 625 603 603 592 628 656 653 636 625 622 622 639 617 608 639 664 664 631 636 642 625 558 647 653 669 664 464 406 542 472 372 386 364 375 369 358 394 397 394 403 397 389 386 386 392 400 372
223 768 0.4258 611 747 717 683 686 683 717 681 678 681 439 931 697 681 664 658 703 664 586 719 689 611 714 675 672 586 744 683 647 650 561 611 675 536 708 506 700 547 708 525 667 519 642 542 667 531 625 508 667 539 636 533 597 503 600 531 617 525 578 522 589 550 567 539 556 514 531 528 569 539 583 525 528 550 597 508 531 522 569 517 564 553 525 531 569 531 622 519 567 525 533 533 586 528 569 539 492 522 664 517 567 525 531 525 594 528 569 506 578 528 581 525 586 503 556 539 603 514 653 531 575 519 619 533 642 514 594 506 983 925 533 589 844 725 669 697 697 672 689 653 658 647 700 644 639 636 681 661 672 658 661 656 667 681 658 647 656 653 686 675 675 658 692 681 683 667 678 689 686 683 697 681 728 692 683 692 692 700 628 747 697 686 731 697 689 686 689 692 694 678 661 675 711 686 683 686 692 694 714 681 675 697 711 681 653 683 683 678 675 664 656 667 694 667 661 664 681 681 686 689 681 683 706 689 672 661 686 686 689 481 514 797 789 708 692 681 706 686 700 667 672 689 708 683 675 686 681 706 714 678 667 708 714 683 692 692
223 1280 0.3008 694 692 717 536 775 494 756 967 694 597 689 789 703 694 667 681 714 681 653 697 669 708 714 692 486 572 892 736 689 700 697 711 717 692 694 722 706 683 672 700 686 694 678 664 694 700 689 664 681 664 569 786 486 961 483 953 486 911 483 903 492 944 478 897 492 936 486 883 503 903 478 714 781 714 714 697 664 669 692 678 678 686 689 669 694 694 686 681 689 689 706 692 703 694 725 622 761 692 694 700 700 681 678 700 714 675 675 678 669 703 700 681 681 694 714 689 675 678 669 692 708 569 767 589 808 692 658 683 669 681 683 667 661 678 697 675 633 681 661 689 683 683 664 719 717 692 681 706 708 694 689 683 686 731 697 694 703 683 717 725 694 692 722 739 719 692 725 714 722 503 481 1039 517 767 597 1033 486 933 494 778 464 994 825 689 692 697 619 750 678 689 675 706 683 631 717 617 742 719 625 739 714 711 700 667 694 672 556 850 675 583 808 706 611 758 586 742 508 644 469 608 453 625 492 617 472 633 461 619 489 636 483 628 447 667 483 644 472 594 475 681 447 675 492 636 461 669 478 669 467 600 469 669 450 678 481 653
223 1792 0.3633 711 722 703 678 708 689 708 706 706 678 728 708 686 667 694 675 697 678 692 686 725 686 697 683 697 708 703 683 706 711 719 592 717 769 686 731 711 697 681 731 703 689 686 683 686 689 686 681 675 722 689 669 703 689 711 706 686 678 711 719 711 683 717 700 703 683 681 678 706 683 678 525 769 497 850 489 1008 489 944 489 922 475 931 481 928 481 897 506 919 489 903 506 914 497 914 478 886 517 875 469 881 497 883 503 889 472 892 508 794 467 992 497 933 514 894 489 911 492 881 469 903 489 897 489 872 500 897 497 875 489 897 500 903 489 883 497 908 492 856 483 900 500 919 517 828 519 928 492 853 483 731 531 847 503 917 500 942 500 869 494 889 528 900 500 897 506 928 500 886 486 903 492 900 494 894 514 906 506 869 511 900 533 881 486 939 522 878 500 886 475 931 494 894 486 928 503 856 497 867 511 850 500 850 497 889 494 847 472 878 503 819 483 931 500 936 506 864 492 894 500 867 478 881 500 858 494 844 522 836 483 867 497 839 514 853 494 847 528 844 492 889 483 858 522 875 469 878 508 903 497 883 500 842 542 847 478
232 0 0.7344 683 731 1831 678 703 1869 658 1669 672 1672 667 1639 675 753 1742 664 725 694 725 725 692 700 1906 2636 1125 681 711 1850 672 750 731 708 708 711 725 728 739 739 722 2775 1139 664 719 1925 678 722 728 1997 1358 661 725 722 706 728 2669 1200 681 725 1833 664 736 1825 664 717 711 1978 2078 1972 664 714 703 728 725 708 706 722 731 722 1764 689 728 722 1431 669 719 1900 694 736 719 719 717 1489 697 747 1906 664 750 733 1908 667 764 1964 675 736 722 1961 672 717 1961 700 717 1903 683 731 1867 686 750 1875 675 725 706 725 717 1878 681 747 742 733 717 717 719 728 731 744 2400 1381 689 733 706 733 1689 708 731 1822 703 719 1856 681 717 1908 689 733 1903 678 714 717 728 719 2531 1436 678 722 1886 703 733 733 733 722 1897 683 1728 661 1658 681 1653 678 719 1808 689 711 1767 683 731 1772 653 1656 686 711 1783 675 739 719 1800 675 1717 644 711 703 719 1814 1933 678 722 1867 656 733 1872 661 722 1853 692 733 689 700 714 1928 672 719 706 719 739 714 744 719 731 731 742 731 744 733 717 1597 697 758 728 731 2806 1317 683 744 728 725 697 731 744 728 2011 703 739 1939 697 1744 678 744 728 728
232 256 0.7656 1711 700 764 1925 675 731 742 744 731 1983 692 1825 686 747 717 747 1736 686 728 1886 683 722 711 2658 1131 689 739 1925 658 731 1994 1450 683 719 728 742 731 731 739 1892 1417 678 739 722 736 1894 672 739 731 744 742 2781 1394 678 1675 658 731 725 719 706 717 722 750 1856 675 1756 694 747 1811 675 747 703 739 717 1847 686 744 719 739 1653 669 719 711 717 1603 672 739 706 725 1969 689 733 1944 2561 1389 686 758 731 739 711 728 739 2761 1283 686 742 717 719 1669 692 753 1892 678 744 747 717 717 719 2700 1333 675 733 739 731 728 706 1617 686 747 753 733 725 733 753 2847 1136 700 733 722 1919 697 747 1811 669 731 744 764 725 733 722 742 753 736 1917 683 733 1992 681 736 750 750 728 2594 1231 694 722 1861 711 742 722 728 1853 692 750 1839 675 742 728 728 722 722 1481 700 756 731 722 736 2078 664 739 733 733 1756 694 725 736 764 736 739 1789 678 764 742 2719 1333 697 722 1844 703 764 1839 692 753 719 1714 675 733 731 2011 681 744 750 739 719 1950 653 747 731 728 731 714 1833 672 697 1822 683 742 703 719 700 728 736 725 1958 689 714 728 758 719 722 725 1653 697 736 722 739
232 512 0.8047 1808 678 750 1967 681 1775 703 728 731 744 728 728 1519 694 753 1883 686 1711 692 736 703 731 744 719 1481 669 736 1847 686 744 1956 694 736 725 725 1783 717 742 733 733 1839 706 731 722 1503 678 747 736 719 733 2142 683 753 747 742 739 1969 678 758 1969 697 742 725 739 1872 692 753 739 1558 667 756 736 1914 692 750 711 744 753 742 756 753 756 747 2019 697 753 747 778 1844 722 778 739 1575 686 758 750 758 1542 678 769 750 758 1894 708 764 758 1581 686 761 758 747 753 772 2081 725 767 1911 703 744 1917 678 725 1897 683 739 722 753 3083 1394 722 767 756 736 756 761 753 3089 1358 706 756 1906 686 764 756 733 1764 722 769 744 1489 697 764 753 744 1811 711 769 733 731 1775 722 769 747 753 739 753 767 1883 686 761 717 744 733 725 739 725 772 722 775 675 731 733 717 722 733 700 708 728 764 756 733 722 728 744 731 739 758 750 744 744 767 756 753 742 1639 689 1581 686 744 736 758 728 742 1769 667 753 744 731 750 731 753 772 747 750 739 764 1797 678 731 1781 714 744 722 1825 667 742 747 728 739 736 1808 686 742 1728 694 1781 689 744 1833 672 728 1844 689 758 711 719
232 768 0.7617 1975 672 731 719 719 722 742 753 722 1903 703 747 1831 697 733 742 2147 683 747 1808 661 742 1833 689 744 1881 694 758 739 1897 681 753 1828 672 719 1889 681 739 1856 689 744 714 714 722 744 750 742 722 739 753 742 742 767 1897 706 772 739 739 1864 694 756 2031 683 769 1983 694 756 1914 686 742 1883 717 744 719 2256 686 758 1894 681 758 1875 683 731 714 1808 689 739 1867 672 736 1961 678 742 736 725 1828 692 756 733 728 739 725 750 1392 675 736 1881 700 1847 686 758 1939 681 736 747 736 733 711 2031 2717 1111 717 581 836 703 719 1933 686 725 717 2489 1356 694 742 717 739 750 731 736 722 753 3158 1233 714 761 728 731 733 747 1750 667 744 1933 714 747 736 2689 1444 689 742 736 731 733 731 1886 694 744 1919 678 747 747 722 736 1844 708 761 728 731 753 739 1631 681 739 742 2678 1161 700 747 1933 678 742 761 756 739 731 739 753 4203 1272 686 744 728 736 739 753 756 3094 1253 697 728 1958 694 753 736 747 756 761 753 744 2181 4100 1242 700 731 722 747 731 742 747 744 736 725 3283 1244 689 750 1822 672 736 744 731 731 722 1758 697 747 747 750 2111 1464 675 756 733 733 747 742
232 1024 0.7773 2892 1144 706 742 750 733 747 761 733 2406 2703 1275 708 761 722 739 725 744 1492 678 739 1814 700 758 722 1897 706 756 731 736 750 728 756 764 5872 1192 719 767 728 742 722 756 767 736 736 744 747 2767 1497 708 758 742 742 719 725 742 756 1994 1422 703 750 744 1950 683 750 1908 692 753 756 736 742 742 2553 2656 1161 703 739 717 728 4411 1217 736 739 736 736 736 717 758 747 744 2197 2786 1228 689 744 733 722 717 736 747 739 1881 692 722 739 758 728 3481 1364 678 733 731 728 719 733 719 725 753 733 742 2717 2017 692 733 744 747 742 731 739 2081 4017 1203 683 744 742 731 747 761 744 756 747 761 767 2769 1225 719 756 733 731 756 778 756 747 2981 1206 703 731 744 767 733 744 3225 1261 700 725 756 767 742 739 753 742 744 3139 1603 700 772 719 744 750 744 756 769 747 3000 1506 689 758 753 744 744 747 733 747 783 744 1767 717 736 1872 694 733 739 767 736 756 758 2094 4144 850 506 458 567 631 736 622 647 681 2144 1133 692 753 728 733 5617 1311 692 725 739 714 747 756 722 725 725 744 2592 1214 675 747 728 717 733 731 756 753 747 733 3111 2286 2600 2506 1475 672 731 692 714
232 1280 0.7930 725 725 722 722 4378 1161 706 744 728 694 714 719 706 728 739 722 1942 1522 689 731 728 736 742 733 4150 1114 686 725 714 733 722 725 722 717 733 756 719 744 728 4447 1114 700 750 739 714 714 728 714 728 1981 1469 694 1792 706 753 1889 678 747 717 731 772 728 739 2122 4158 1236 683 714 708 742 725 739 756 728 728 2936 2519 2494 1400 694 750 722 722 728 719 714 742 739 731 1922 2578 1453 672 742 750 717 717 711 736 744 725 728 722 733 722 739 747 2394 3997 1139 700 739 714 722 731 728 733 744 719 733 747 5694 1175 683 719 717 725 725 739 742 717 2928 2328 2567 2517 2500 1406 683 733 725 714 706 719 731 708 717 706 703 1947 1406 686 733 728 744 717 717 722 744 719 744 753 719 2119 1442 669 739 725 708 733 736 722 719 725 744 747 750 1736 697 764 739 758 4306 1233 708 736 753 758 731 728 731 772 756 744 3061 1203 686 747 733 756 761 725 2742 1586 672 731 708 736 744 728 731 758 758 2044 2742 1350 697 728 739 744 744 744 753 744 731 750 769 747 758 3189 1267 700 733 739 761 728 728 725 747 731 769 2644 1475 714 761 725 744 756 750 761 753 742 733 747 778 3050 1239
233 2304 0.3047 403 489 389 928 475 439 806 411 614 433 819 453 719 575 564 567 392 744 592 444 686 575 581 528 625 556 411 725 569 575 419 731 569 572 414 578 350 922 594 583 394 767 469 706 575 575 600 578 581 569 575 400 758 608 581 408 750 606 594 408 742 586 586 408 767 592 578 397 747 608 575 411 747 592 581 422 781 592 581 408 781 611 592 397 756 594 592 400 772 589 572 406 783 592 581 406 761 586 589 422 764 592 581 419 786 597 569 456 700 583 578 589 586 572 589 611 583 586 578 594 583 592 414 756 478 703 411 781 531 664 603 597 508 703 606 597 492 692 617 594 467 694 597 583 481 722 589 578 464 406 925 411 786 614 600 408 828 544 667 611 622 608 603 583 603 586 603 408 786 592 575 408 794 556 625 592 597 447 736 597 586 444 728 611 586 469 428 844 397 781 403 781 406 525 864 614 603 389 792 544 650 600 581 458 711 608 597 506 653 597 586 508 672 603 583 506 403 853 414 517 836 597 389 764 539 653 583 575 456 731 594 378 775 603 603 389 786 603 589 403 792 603 583 403 772 603 597 364 817 592 586 408 781 606 581 386
233 2816 0.3242 597 606 417 422 911 483 703 442 739 606 589 578 603 617 583 408 767 558 336 869 628 583 400 764 619 589 406 756 597 594 400 794 597 597 392 778 611 594 392 775 606 594 397 775 606 589 397 814 608 594 400 800 603 617 550 653 414 783 489 728 422 769 508 681 619 622 594 594 389 472 956 619 603 394 808 472 764 608 600 503 700 611 528 653 603 408 797 450 767 611 392 811 625 614 389 792 608 603 408 803 494 675 603 603 600 583 403 775 603 606 411 792 606 603 419 775 611 592 475 692 606 606 472 694 592 603 503 394 869 425 769 619 611 533 658 589 614 547 358 861 422 775 611 600 494 694 586 606 553 361 869 417 786 603 600 525 669 594 597 539 369 856 411 769 603 603 403 786 408 797 481 758 619 592 494 394 428 983 478 725 597 603 600 589 389 778 436 744 600 606 472 697 606 617 483 681 578 603 519 356 878 433 733 475 722 600 408 750 408 769 611 406 792 572 592 586 608 589 397 747 592 575 578 586 567 567 508 650 583 578 481 375 858 447 731 581 383 744 408 783 397 761 392 767 450 733 619 589 594 592 406 819 606 594 394 753
