# physionet r-r rhythm segments, distilled
# source PhysioNet afdb / nsrdb / mitdb, ODC-BY 1.0
# class EctopyHeavy
# segment_beats 256
# selection every 1th of 39 segments in this class
# columns record start_beat premature_fraction rr_ms...
# lead chest, ambulatory Holter ECG - NOT wrist PPG
106 0 0.2305 1036 1006 1006 1058 1022 1039 964 878 936 1000 972 919 931 856 842 847 864 828 792 800 808 775 783 794 811 786 742 683 683 700 747 769 744 839 997 956 964 978 1006 978 883 828 836 858 936 942 911 917 942 958 1000 1092 989 964 903 853 864 889 864 844 806 742 750 789 831 864 936 1031 989 903 908 967 986 914 872 892 908 911 997 1031 1017 981 975 925 942 975 942 836 844 842 844 867 861 822 806 750 756 733 800 894 919 556 494 1197 492 464 1347 1003 533 1172 522 472 1286 525 1297 539 478 1272 922 497 486 1356 511 497 1311 869 506 472 1275 886 525 481 1228 461 1211 517 481 1325 514 1239 494 1175 514 486 1342 547 1192 500 464 1261 497 1269 536 483 1236 522 431 1225 506 508 1281 519 1117 508 461 1219 522 1250 519 483 1250 486 1219 842 819 558 497 1286 478 486 1378 522 1333 892 817 922 892 525 531 1306 525 1272 494 450 1214 514 1328 567 1239 542 1256 1028 1081 931 847 1031 533 481 475 1481 550 1447 1161 1108 1058 1114 1156 1111 1089 1028 1125 1114 1014 914 878 939 1056 1136 1133 1050 1017 1072 1086 1094 992 892 928 1100 1044 1092 1056 1064 983 1044 1031 1069 956 989 1125 1081 1064 947 867 925 1031 1150
106 1024 0.2578 800 781 756 503 1061 486 1047 611 997 781 508 469 1161 506 1044 586 1086 783 822 817 861 492 1239 947 897 908 975 892 917 969 942 897 886 833 864 875 911 881 817 817 811 800 878 897 867 886 872 842 875 953 931 947 953 864 889 953 936 942 897 878 883 828 883 931 906 911 864 814 789 750 800 822 561 461 1092 503 978 556 950 508 978 550 931 686 497 450 1131 550 1092 753 739 489 419 1219 547 1147 539 1106 736 722 733 758 844 861 519 1117 800 753 842 939 547 1167 847 783 517 461 1203 542 1167 822 758 494 436 1175 531 1228 831 803 781 767 767 789 850 822 808 836 814 769 764 819 875 864 806 786 797 811 839 850 839 806 822 858 847 875 914 881 906 872 803 911 992 969 869 847 778 806 872 953 917 994 989 903 964 1003 608 1325 558 1136 828 833 936 550 483 1283 492 1228 494 458 1300 556 1297 497 1178 506 1264 531 1383 508 1247 508 1281 506 1389 522 1336 494 1256 547 1353 556 1278 961 892 525 503 1364 547 1333 544 467 1208 539 1281 556 1283 914 503 1228 953 575 519 1258 544 1200 514 1247 542 1322 967 511 494 1269 514 1369 1044 947 986 539 1319 1075 997 1050 539 1253 975 581
106 1280 0.2969 533 1342 556 1211 514 1244 619 1294 947 544 494 1217 506 1286 922 550 508 1194 481 1247 536 1272 536 1236 500 1164 508 1236 536 1303 500 1189 497 1269 539 1331 525 1242 497 1267 544 1283 542 1264 508 1219 500 1292 556 1300 508 1236 489 1250 547 1311 511 1253 508 1197 500 1325 522 1281 514 1228 500 1339 542 1306 511 1197 508 1228 542 1242 964 964 531 1192 939 989 956 556 1228 964 964 997 1008 992 958 1008 547 1314 1114 1036 1017 1017 539 1333 1075 567 1267 1031 533 1317 569 1272 611 1206 522 511 1300 553 1336 522 1256 503 1264 550 1331 531 1286 503 1242 531 1303 1008 556 1197 508 1242 567 1206 558 1092 522 1186 919 553 1289 581 1289 497 1197 531 1308 1000 553 1233 969 533 1350 547 1372 542 1267 525 1319 558 1356 550 1253 506 1297 572 1325 550 1286 514 1200 906 978 564 1347 978 931 1044 1136 1058 1083 1067 1067 1028 1094 1097 1061 1025 1042 1156 1128 1069 1017 1089 1122 1047 1072 1022 1053 1058 1067 1111 992 972 1075 1078 1033 1067 1019 1014 961 989 1089 1158 1131 1108 1108 1117 1128 1092 1044 1006 1106 1122 1086 1156 1022 1017 1075 1128 1156 1014 1086 1086 1139 1019 1008 1019 1000 936 1008 1081 1033 958 1003 975 1122 1022 1036 1061 989 1078 1094 1003 969 994
119 0 0.2266 539 1317 939 933 889 897 539 1300 944 881 861 928 531 1272 925 869 917 911 864 953 933 867 547 1303 553 1342 533 1331 569 1272 631 1239 550 1333 883 897 878 839 542 1286 542 1286 569 1286 536 1306 881 867 903 875 522 1342 919 531 1319 939 542 1339 592 1356 925 531 1317 539 1297 575 1225 925 883 886 947 922 978 947 897 536 1369 878 917 908 883 886 914 522 1356 964 936 892 911 572 1322 525 1364 544 1292 933 867 894 911 886 897 928 911 911 939 953 911 969 942 917 956 911 903 961 906 894 944 903 883 906 878 908 903 906 917 911 528 1303 922 894 869 886 903 864 881 542 1286 944 911 892 925 883 536 1306 544 1311 656 1247 950 881 544 1292 908 528 1319 911 908 886 869 539 1294 958 908 878 919 892 886 922 892 883 931 872 519 1331 886 514 1300 886 536 1264 553 1297 869 508 1264 858 911 911 886 544 1406 903 547 1381 986 536 1356 936 528 1322 928 544 1333 544 1325 917 528 1278 567 1289 567 1286 633 1258 531 1322 558 1300 939 897 894 956 914 519 1347 567 1339 922 886 553 1336 542 1333 547 1311 933 872 931 928 875 928 942 939 942 961 967 525 1319 953 886 536 1325 542 1333 914 847
119 256 0.2383 550 1294 542 1317 875 544 1306 886 547 1303 931 539 1314 728 1239 881 536 1328 967 894 867 950 528 1303 956 914 908 892 528 1328 936 892 875 900 542 1328 933 936 892 531 1306 531 1325 917 875 531 1317 892 886 533 1303 550 1281 592 1294 883 531 1258 872 542 1242 875 589 1217 522 1331 539 1303 589 1256 931 533 1283 900 531 1294 889 525 1300 906 522 1294 903 533 1294 528 1311 858 839 875 844 886 914 864 522 1339 544 1283 903 861 542 1294 881 558 1281 875 536 1264 889 536 1231 908 522 1228 881 525 1269 908 886 872 533 1264 544 1253 889 856 861 881 856 878 889 856 883 931 869 883 925 869 514 1289 536 1303 906 853 564 1281 536 1286 872 525 1275 875 514 1281 875 519 1272 886 544 1283 881 550 1294 856 519 1258 889 875 892 928 897 911 903 897 931 547 1303 961 889 850 911 867 886 911 867 897 925 881 878 914 894 908 894 881 903 892 861 889 911 892 869 903 911 839 869 531 1269 936 906 856 903 550 1292 933 867 894 922 867 919 944 892 511 1333 908 547 1325 897 556 1331 881 533 1269 894 525 1253 558 1278 883 844 528 1325 886 906 947 886 889 931 886 528 1342 536 1328 942 861 547 1303
119 768 0.1836 900 897 875 894 872 917 908 856 922 528 1297 947 881 903 922 519 1325 953 875 875 869 533 1303 919 892 886 914 511 1333 964 922 903 939 897 528 1333 906 525 1350 906 525 1336 550 1364 903 925 939 878 522 1336 544 1311 922 872 536 1308 542 1331 942 864 903 919 892 525 1317 919 533 1311 897 528 1319 917 517 1319 558 1319 542 1286 928 858 528 1319 919 514 1331 903 539 1331 900 544 1297 903 528 1283 544 1286 550 1300 664 1233 956 900 900 906 514 1344 958 897 892 928 917 872 908 914 908 900 886 881 925 861 869 928 875 867 917 864 897 917 514 1306 953 886 903 900 883 539 1350 536 1339 944 881 517 1353 553 1314 933 897 528 1328 944 525 1350 536 1333 908 878 883 872 867 928 903 892 964 928 892 939 906 917 911 878 542 1350 897 917 919 900 881 886 903 864 867 875 869 917 875 522 1322 908 531 1314 889 922 911 861 908 917 856 911 914 911 894 917 528 1339 939 936 883 922 536 1306 969 903 883 936 889 897 939 875 519 1372 542 1319 919 883 544 1306 914 903 556 1283 922 911 889 547 1319 906 917 908 917 883 928 911 867 569 1311 883 875 881 889 856 892 528 1319 944 933 875
119 1024 0.2148 939 928 883 936 908 886 944 922 914 958 906 933 922 869 536 1322 922 556 1292 931 528 1281 919 528 1306 931 531 1317 906 531 1269 878 528 1306 869 522 1294 558 1294 533 1278 925 864 856 886 542 1275 922 889 881 533 1314 569 1303 933 872 525 1308 539 1286 917 867 900 900 875 933 881 525 1367 572 1308 936 875 906 894 883 897 922 869 881 906 883 886 892 894 900 903 889 875 911 908 875 925 533 1306 933 883 858 531 1286 553 1306 944 881 881 931 919 897 903 917 892 894 894 878 942 903 881 969 936 883 950 919 522 1350 525 1344 969 858 875 883 883 869 889 903 878 894 886 886 922 903 903 950 906 531 1361 550 1389 561 1378 997 942 939 936 931 958 947 953 556 1375 981 519 1378 561 1353 536 1367 950 914 522 1369 956 917 953 939 919 536 1350 542 1378 542 1342 1000 917 889 900 947 903 886 539 1347 519 1317 553 1331 931 536 1311 872 806 808 536 983 544 908 536 858 733 681 525 1228 833 847 867 844 511 1328 864 858 897 522 1333 522 1303 581 1292 525 1300 528 1281 856 800 858 844 542 1253 528 1269 558 1217 861 822 814 531 1153 522 1172 600 1067 536 1158 583 1042 753 753 781 808
200 256 0.2734 972 514 847 469 850 561 878 547 914 539 897 519 931 489 889 617 961 575 864 500 800 486 875 675 808 583 811 536 889 511 806 525 850 522 872 714 642 650 553 744 761 761 694 717 719 683 606 811 519 919 531 1064 514 883 572 772 664 733 689 794 550 803 539 858 506 789 514 419 1158 528 822 672 600 628 678 694 703 619 628 678 528 692 675 614 647 647 500 906 506 797 614 600 636 656 689 733 653 622 611 653 669 656 647 653 708 653 672 675 550 703 550 708 622 853 636 681 625 608 636 642 581 753 658 664 561 786 506 706 603 614 619 692 697 658 528 683 600 661 642 667 461 808 667 608 558 733 481 728 586 622 747 669 644 575 572 594 572 611 603 669 547 703 636 656 597 597 506 617 492 739 675 678 614 603 564 586 631 631 589 683 653 642 589 625 547 675 592 575 508 764 619 711 614 561 553 569 564 631 650 656 550 647 547 719 539 650 550 592 589 644 658 628 556 619 483 628 553 722 533 739 628 589 539 647 497 717 597 636 592 686 642 658 525 642 569 608 531 719 589 786 628 600 589 683 517 728 617 628 664 681 606 686 525 683 608 675
200 512 0.2812 664 681 675 639 608 606 553 736 531 764 542 794 697 672 647 564 606 650 603 700 681 717 556 672 506 800 653 683 647 656 625 464 897 553 719 650 625 728 792 689 642 614 656 597 661 689 669 703 639 653 683 622 622 611 644 675 708 719 711 667 631 631 700 606 781 442 911 561 756 506 853 575 633 536 1317 536 444 1167 511 928 769 781 764 697 717 481 878 506 767 519 858 575 833 714 653 606 636 694 667 703 631 681 667 658 686 689 694 697 753 786 731 719 636 525 761 592 1206 553 944 586 842 533 881 486 886 564 886 514 831 528 736 506 928 558 883 497 775 514 828 469 914 731 569 556 1283 497 950 714 717 758 778 736 700 647 561 831 528 889 514 914 528 878 514 853 681 669 758 786 750 528 792 536 767 522 892 525 525 953 503 1014 700 633 681 739 739 783 667 800 503 928 567 1036 589 1064 550 1031 528 1006 575 947 606 1067 758 628 650 664 669 725 753 594 739 658 569 808 661 678 606 831 533 883 561 806 472 811 572 958 578 850 689 483 831 544 836 567 875 575 889 517 733 664 656 658 744 806 592 817 447 1081 531 967 519 906 975 808 806 747
200 1024 0.2148 664 786 675 611 603 608 519 706 642 753 569 719 567 769 669 656 522 706 531 806 639 794 633 625 489 744 558 886 756 650 592 700 531 767 539 808 669 700 681 761 553 719 481 803 667 722 756 675 656 622 678 692 681 642 706 722 481 886 569 797 572 717 636 853 592 889 503 819 483 833 567 950 728 686 731 706 606 636 644 686 664 731 747 650 647 603 664 728 728 733 708 692 636 675 697 664 678 603 811 811 686 733 656 597 697 742 758 783 714 678 717 578 856 578 794 653 742 750 706 636 614 575 744 706 772 539 772 508 764 525 842 519 900 706 728 622 764 506 733 506 817 583 928 631 725 489 758 544 436 1117 525 836 667 653 650 650 611 636 611 744 653 786 511 706 622 592 556 758 600 792 625 617 656 656 617 617 622 653 675 683 611 717 536 647 581 644 658 772 689 597 594 603 594 608 656 594 639 619 572 767 614 619 492 625 600 589 614 706 628 600 519 581 603 639 553 658 597 603 592 589 589 608 558 569 544 586 653 678 608 608 542 528 558 531 589 633 636 639 586 567 606 631 567 592 533 578 633 594 647 636 583 572 539 539 597 661
200 1280 0.2812 633 672 578 581 617 536 594 600 564 633 606 619 669 667 592 603 547 544 603 592 664 703 650 625 556 567 617 617 617 631 619 600 617 622 597 619 567 589 553 639 647 767 617 594 586 581 486 681 653 653 642 614 628 644 633 594 581 583 603 619 672 647 681 589 606 558 614 692 583 733 533 722 631 592 617 664 536 742 631 703 625 764 581 589 497 750 614 678 733 656 581 617 528 772 617 658 639 683 697 622 681 658 578 661 528 739 622 883 583 756 622 642 611 675 742 697 703 536 486 969 508 789 617 636 681 517 869 592 689 592 603 692 714 708 689 622 694 539 728 531 792 531 792 572 900 522 794 511 708 533 808 569 853 531 794 492 767 553 792 567 736 581 758 556 792 536 753 489 814 783 761 725 606 622 631 486 828 606 808 564 850 553 878 694 511 769 625 867 578 1039 494 819 503 858 767 781 686 650 600 656 572 783 519 422 1067 589 889 547 708 464 783 525 828 578 922 522 747 492 831 558 825 514 836 578 783 525 822 500 728 483 911 633 878 525 778 511 733 528 886 569 889 514 861 572 828 519 822 531 917 578 878 567 392 1203 533 1264
200 2304 0.2812 686 722 708 592 753 586 942 531 781 617 728 561 889 617 1053 481 950 553 1006 781 758 800 694 706 719 653 647 589 853 692 1186 489 978 494 964 714 872 747 700 753 631 772 758 761 772 800 794 564 967 492 1125 606 1169 778 508 942 611 978 808 789 758 667 539 1081 464 894 553 967 619 858 742 631 692 672 789 756 736 622 972 561 997 503 994 567 1122 792 703 611 697 650 731 797 675 789 639 672 736 683 625 969 600 1061 553 1003 603 839 847 914 831 619 772 558 719 558 1139 564 1114 797 792 586 767 569 1150 553 1094 794 489 486 1069 628 1036 872 736 622 811 572 1189 550 1075 842 822 719 661 553 950 550 1128 575 1008 719 778 789 811 775 792 758 742 717 672 686 664 625 853 636 1058 503 925 703 661 875 778 511 867 650 792 722 544 419 1050 608 919 714 656 589 700 786 756 800 597 772 711 731 736 733 628 983 589 1094 533 933 736 764 669 950 608 1006 475 1003 592 1058 794 761 642 836 592 853 558 808 583 1097 561 861 506 814 508 900 803 683 736 656 694 725 656 728 753 794 747 639 1008 528 989 847 897 844 744 619 814 544 994 567 1033 614 919 764 694 644
201 1280 0.2734 1400 528 369 950 1147 1011 1353 1217 508 1264 1192 1036 1350 1172 919 1369 1211 1231 531 1258 1139 1000 1381 1189 1133 958 1325 583 397 1039 1128 1183 925 717 458 1061 1147 1214 1128 1067 1336 514 1286 1161 986 1361 1194 1044 581 1322 1228 1228 1017 642 1394 1150 1228 1019 1361 1119 997 1392 1219 542 375 975 1100 536 1425 1236 878 1428 1197 1192 569 1411 1142 850 1469 1236 1161 956 1283 544 1317 1242 1136 939 1242 1253 897 1428 1811 1139 1242 1014 1283 472 1361 1200 1208 1000 1253 1136 903 1411 1167 931 1283 1106 1039 1261 1181 844 1397 1200 1050 1333 1153 944 1361 1200 1042 1211 1192 994 1358 1172 1000 1183 1200 1042 1217 1189 908 1331 1181 1092 1306 1150 981 1444 1186 1022 1186 1172 983 1433 1103 975 1253 1192 1044 1308 1111 956 1369 1261 958 1278 1158 964 1336 1161 1031 1183 1258 1339 1192 1169 1186 1172 1281 1208 1133 1125 1236 1200 1231 1156 1139 1156 1269 1225 1181 1175 1206 1231 1217 1158 1122 1211 1250 1186 1147 1131 1150 1222 1247 1142 1122 1158 1150 1219 1172 1139 1092 1278 1228 1139 1125 1139 1161 1206 1142 1094 1086 1200 1219 1150 1142 1153 1183 1242 1211 1106 1131 1150 1242 1083 1192 1061 1158 1206 1275 550 389 1008 1186 556 1358 1172 489 369 986 1122 1211 1219 497 1433 575 1378 2067 525 1442 561
207 1536 0.1719 981 964 947 961 997 1019 992 981 958 936 1003 1028 997 969 956 958 986 1019 994 994 967 933 1014 1028 986 989 953 958 994 1019 1011 1003 961 939 1000 1028 1003 978 947 967 956 1000 1014 986 964 947 961 1022 1011 969 961 972 953 1017 1025 994 975 947 942 1022 1022 986 967 986 939 1008 1022 997 992 950 947 1019 1025 978 978 986 947 1011 1025 1011 983 958 953 1000 1056 994 983 1011 950 1000 1053 1000 992 958 964 922 1083 989 1061 708 1294 614 1417 725 1353 656 1300 65535 2278 2508 1481 1228 1161 1211 1161 1133 1103 1139 1194 1125 1128 1097 1094 1144 1189 1142 1111 1067 1136 1164 1111 1083 1061 1025 1078 1069 1042 989 942 983 997 972 961 928 933 897 944 967 911 889 861 847 881 917 900 864 872 864 822 847 894 889 878 847 828 1519 1139 900 1508 1169 878 939 1000 947 944 922 911 997 947 969 969 992 975 1011 1036 1058 1039 983 1017 1031 1078 1036 1017 1022 939 1000 1075 994 981 936 919 981 961 933 939 911 881 844 914 931 919 872 747 878 625 872 647 569 783 633 522 506 469 469 447 478 489 506 492 486 489 478 475 472 472 478 478 511 508 517 514 503 508 522 506 486 472 469 461 506 519 525 503 517 492 506
208 512 0.2891 447 686 586 586 589 603 539 475 794 522 481 872 586 458 694 589 456 661 556 458 736 611 456 789 569 444 714 572 478 622 558 522 708 589 547 664 592 506 636 547 581 622 636 606 603 600 600 614 606 442 700 600 547 675 567 550 561 561 550 439 719 594 456 725 564 517 583 522 517 444 589 525 539 492 644 542 539 450 658 558 531 542 500 547 475 633 569 547 456 625 531 508 525 525 522 539 536 536 536 447 581 506 522 450 556 525 569 481 672 553 508 528 525 514 503 528 506 522 478 572 539 539 469 567 478 497 483 464 494 503 531 517 547 528 583 542 519 511 500 503 536 558 481 719 594 478 675 567 519 711 589 517 797 642 428 900 483 803 556 533 475 814 600 514 650 592 553 458 783 447 756 586 603 475 761 469 678 553 553 447 733 619 611 453 844 617 425 822 553 408 767 592 594 486 778 581 511 658 614 550 489 892 597 461 819 603 428 714 536 503 725 608 581 525 958 519 769 617 556 494 917 597 542 786 583 428 808 550 447 919 581 525 817 617 461 769 561 408 786 642 456 897 597 419 839 603 411 808 592 456 925 583 489 853 567 431
208 1792 0.2031 589 847 681 567 850 639 483 497 492 736 653 703 650 561 800 642 581 761 692 592 853 647 544 781 622 592 808 681 558 808 669 597 703 631 583 786 661 592 700 642 603 767 633 636 789 683 544 497 989 531 672 586 614 783 678 558 844 653 417 519 453 736 550 961 628 753 656 553 708 619 567 869 681 617 742 675 547 717 608 581 744 681 606 731 619 556 742 592 569 667 661 644 703 656 556 736 608 547 764 658 581 703 644 550 778 647 519 778 664 606 700 642 553 744 619 539 808 653 586 747 639 569 739 600 567 719 681 589 731 642 550 803 644 542 661 625 614 603 603 581 547 544 519 514 514 525 525 514 517 503 492 472 492 475 461 456 442 447 478 503 503 478 475 442 481 475 464 478 492 497 544 553 561 594 550 542 525 494 514 525 497 550 561 572 575 553 522 547 539 511 514 492 536 575 544 550 544 511 517 514 522 539 506 506 547 564 558 553 553 564 567 561 586 503 578 592 592 611 597 478 647 544 558 561 517 564 506 708 589 483 611 528 528 531 517 528 581 603 622 553 661 586 547 581 553 544 600 581 586 592 547 561 486 611 561 511
208 2048 0.2070 533 531 558 561 539 556 561 550 536 528 544 569 525 836 536 650 592 556 667 622 556 622 625 608 714 608 550 717 628 525 703 611 569 683 628 575 619 586 567 603 542 553 600 600 606 575 639 608 464 511 728 544 553 567 542 3128 492 525 531 575 597 547 758 608 575 633 550 522 608 619 611 636 597 544 633 561 556 575 617 592 789 686 536 758 567 558 550 561 583 589 553 547 519 547 564 556 536 519 581 636 614 617 619 606 608 592 575 536 556 553 569 583 561 561 544 550 564 536 694 678 544 522 942 589 553 558 561 547 781 575 842 675 442 797 536 622 550 531 731 600 608 600 628 519 439 825 519 550 542 544 556 542 528 531 592 653 544 769 531 647 581 586 636 636 536 794 539 625 586 586 633 639 539 750 594 483 542 744 514 686 642 544 711 556 536 636 586 497 792 592 661 592 561 544 531 503 503 489 472 517 525 553 547 575 536 603 550 539 531 494 550 578 586 583 586 489 728 581 536 664 589 550 806 611 711 600 558 619 572 517 603 675 569 889 564 756 622 547 511 828 522 686 619 553 611 578 564 597 564 575 775 639 567 656 617 556
208 2304 0.2422 642 561 525 700 639 608 639 611 556 828 625 547 672 628 564 725 622 569 794 628 506 492 844 619 606 575 581 469 672 556 536 564 564 572 539 644 578 539 564 564 556 489 683 614 575 778 650 625 506 722 556 581 597 589 711 619 592 575 594 600 561 539 575 519 836 572 789 619 556 644 589 586 597 578 592 586 594 597 533 797 539 583 592 614 608 625 597 586 606 550 700 581 567 697 656 564 758 600 561 469 667 533 608 647 600 689 572 578 589 564 519 536 583 572 544 625 603 536 783 608 439 786 567 650 581 564 522 631 597 500 714 553 522 733 614 461 672 572 536 583 642 525 711 664 581 814 631 536 550 719 542 561 569 547 531 533 544 592 636 664 528 794 567 775 661 586 575 547 547 578 583 528 700 606 600 600 600 586 597 561 547 558 581 592 475 742 581 472 653 567 486 633 558 522 725 608 500 772 594 442 797 556 586 581 575 486 750 567 467 675 519 489 558 564 581 525 617 544 569 578 564 553 517 553 600 594 589 567 472 594 514 533 567 553 592 453 786 586 522 581 561 556 617 539 597 564 833 561 692 589 572 572 606 544 783 614
209 1280 0.2656 369 372 364 344 369 381 386 378 381 394 381 378 378 364 367 364 356 361 350 556 589 586 572 558 556 558 544 556 550 578 347 753 625 661 664 619 628 594 603 600 572 639 636 628 603 592 581 539 631 575 564 575 594 608 592 581 581 589 558 558 536 594 625 600 425 689 592 575 586 447 639 622 653 669 653 644 669 600 661 622 608 653 644 647 650 633 631 608 625 608 431 589 483 408 406 394 381 386 383 394 372 375 372 356 350 372 375 392 392 403 414 392 369 383 347 353 364 586 669 592 606 617 572 611 581 606 625 475 725 617 658 658 636 639 642 619 583 642 606 656 658 494 758 644 633 597 622 597 633 636 636 639 639 631 611 617 617 589 642 661 669 664 625 639 614 628 628 633 661 658 664 644 644 636 581 686 617 664 689 681 653 644 642 581 722 633 656 669 642 636 606 636 644 617 594 625 642 614 675 639 647 614 486 700 603 644 647 642 617 603 619 603 422 567 444 378 383 392 383 378 386 397 389 394 372 389 381 367 531 694 614 631 619 614 569 586 572 578 589 564 611 614 631 617 606 611 603 608 542 606 600 636 619 661 619 606
223 1024 0.1758 675 700 683 678 650 689 692 667 650 689 678 697 531 756 489 789 869 672 675 514 869 500 867 475 892 494 864 478 833 489 839 494 714 497 969 492 900 489 836 497 850 497 597 458 836 503 1031 472 892 489 889 489 858 508 828 511 844 669 656 675 644 672 664 650 636 675 664 667 622 678 669 667 683 661 653 661 700 664 631 653 675 686 672 658 656 683 689 683 658 653 689 686 697 683 669 697 711 686 672 689 683 694 719 694 689 567 839 497 692 867 678 689 703 675 653 703 708 681 664 683 675 694 694 692 681 711 517 517 786 806 722 708 697 692 692 725 694 672 681 689 700 697 656 678 683 714 694 669 683 678 706 675 708 683 514 547 822 794 756 722 725 589 828 628 806 664 731 656 739 675 739 639 717 631 769 617 758 675 692 592 797 683 669 536 828 697 678 700 694 711 686 708 686 722 694 683 697 697 697 550 794 606 753 703 681 669 683 494 603 861 719 683 675 728 675 675 667 686 678 686 675 675 656 711 667 683 656 706 681 683 681 567 744 736 706 683 678 692 714 683 692 686 497 781 508 747 833 697 689 722 689 683 694 714 700 675
223 2048 0.2422 883 489 894 514 861 500 875 531 867 492 906 492 925 519 889 494 908 519 886 478 911 489 911 511 858 492 917 511 858 492 919 497 919 486 847 511 947 497 867 503 889 500 919 686 525 844 692 678 658 681 664 686 686 678 653 686 683 683 647 667 672 683 681 700 667 711 689 683 689 678 686 706 667 669 697 711 686 669 686 686 700 711 678 669 714 708 706 664 717 678 717 697 686 703 742 717 683 731 714 550 797 508 706 1019 517 817 767 703 697 706 481 767 486 806 872 692 697 689 686 711 667 642 675 692 664 639 683 633 722 697 647 700 697 700 672 650 700 539 767 508 694 919 708 583 803 667 633 725 706 697 703 664 686 722 614 744 694 564 817 686 517 822 531 703 1022 517 786 953 764 700 711 711 722 689 681 697 692 536 886 706 508 908 711 464 947 514 786 900 675 525 717 525 653 486 608 1100 922 572 989 750 547 950 697 533 900 719 556 833 678 556 825 692 544 814 703 525 647 789 736 728 692 667 678 667 678 697 642 653 681 700 658 650 661 669 669 700 664 664 692 706 700 667 689 689 697 692 700 675 697 700 689 686 700 708 725 706
223 2304 0.2852 711 731 758 603 631 911 619 897 517 728 964 756 706 711 703 708 697 733 681 689 728 700 644 722 719 686 706 697 708 675 739 703 686 689 700 692 694 669 681 672 708 694 667 689 703 697 703 503 775 497 742 925 686 697 681 714 697 678 667 700 686 681 483 750 486 747 886 694 664 617 744 711 672 675 664 689 703 678 508 803 519 675 961 539 853 478 972 475 928 508 897 469 883 472 906 503 878 469 922 497 917 489 883 489 917 486 861 497 928 489 881 494 872 503 897 489 842 511 883 506 850 494 858 489 883 500 839 486 886 508 856 500 881 492 900 508 847 522 872 500 847 517 875 508 867 503 881 522 828 511 853 519 894 514 847 497 864 528 847 492 842 503 850 514 867 478 889 511 800 736 700 681 686 728 675 553 786 769 706 689 689 500 650 900 717 689 725 717 700 678 697 694 689 706 689 683 717 706 686 692 697 703 719 692 686 722 717 706 514 781 492 683 992 497 803 817 694 678 686 678 700 706 675 669 700 703 694 678 703 683 692 700 536 769 519 703 936 689 567 833 536 703 869 722 711 708 681 686 675 706 683 675 689 689 692 697
228 0 0.1953 758 814 931 847 792 789 800 767 817 836 856 811 811 803 742 772 794 933 947 839 594 933 522 1039 606 1139 558 1022 522 969 553 1039 572 1078 578 972 522 986 536 1067 600 1144 858 831 764 797 894 947 919 914 814 764 806 967 1042 958 806 781 794 878 1017 911 1208 786 794 581 706 1644 1036 878 753 803 858 889 647 1178 883 806 511 1100 572 1200 864 869 797 783 783 839 936 922 928 775 783 792 831 883 847 592 1042 797 819 831 847 842 569 1078 508 1053 808 831 556 1214 603 1075 519 1064 581 1214 686 1150 575 1050 647 1292 731 1239 586 1025 558 1297 753 1275 664 1142 961 1206 1142 981 894 847 872 1036 1089 942 850 842 883 892 956 675 1183 578 1033 642 1047 867 919 892 831 753 792 831 825 900 886 836 753 550 1100 581 1181 569 1125 792 794 625 1156 900 844 867 847 572 994 783 803 806 619 1000 744 742 564 1117 922 911 808 767 531 1025 614 1250 942 836 772 797 856 1039 917 897 856 806 828 969 817 1111 928 886 819 878 947 1000 872 883 825 792 583 1131 969 942 858 767 769 839 822 739 1108 842 775 756 836 889 983 728 1061 786 778 817 933 953 908 844 831 547 1050 558 1142 858
228 256 0.2539 842 536 958 803 789 886 964 936 781 733 542 1083 614 1242 953 803 750 864 639 1208 867 897 772 753 817 853 950 925 1003 989 844 853 928 983 953 778 1181 850 861 928 992 931 911 817 819 811 858 886 833 803 792 825 608 1150 853 808 794 811 808 831 894 831 836 836 811 575 1017 672 1100 878 861 775 769 775 853 858 881 806 769 761 794 881 889 839 803 564 1092 853 828 906 867 542 1122 806 839 806 886 892 603 1039 517 1056 831 881 947 869 819 725 789 906 856 858 831 814 731 758 872 897 875 825 839 817 772 772 853 850 806 539 1125 742 731 775 903 853 853 769 733 747 758 836 944 881 819 783 775 567 1053 614 1092 594 1028 531 1000 553 1072 600 1164 594 1014 525 1064 594 1472 700 1153 553 1039 717 1622 814 1189 531 1014 569 1256 692 1361 622 1153 575 1153 653 1375 672 1131 550 1078 606 1144 717 1317 572 1031 556 1108 592 1258 603 1036 539 1111 594 1164 611 1156 550 1033 597 1156 589 1111 661 1106 550 1047 617 1114 589 1189 561 1011 553 1131 647 1064 606 1078 544 1028 611 1100 583 1144 656 1106 575 1097 619 1158 700 1153 564 1017 603 1228 647 1147 853 844 825 947 986 492 1228 858 881
228 512 0.1953 842 892 592 1161 517 1114 864 844 867 847 606 1158 856 819 833 836 594 1183 831 792 811 858 883 572 1192 819 781 822 853 572 1153 864 886 800 817 817 575 1108 883 894 794 794 831 914 897 883 847 839 825 889 925 933 897 900 608 1264 592 1250 614 1231 589 1150 664 1328 756 1408 631 1072 581 1356 675 1286 611 1086 550 1303 747 1278 636 1094 528 1119 661 1339 597 1192 600 1092 558 1194 689 1178 608 1092 536 1061 969 1053 928 836 797 792 842 967 969 858 844 533 1075 556 1106 928 869 833 778 803 500 1200 1072 944 522 1094 600 1056 964 1069 900 811 808 847 894 639 1206 903 833 808 619 1033 869 997 975 594 992 814 858 858 953 950 811 756 550 1131 567 1156 878 800 758 561 1069 894 853 911 858 778 792 833 872 842 567 1225 542 1039 839 914 883 872 822 792 769 822 889 861 819 883 828 789 803 856 875 856 906 850 797 522 1147 969 939 594 1086 536 1081 581 1233 664 1214 856 903 928 906 889 578 1219 811 836 886 858 889 969 911 778 803 533 1197 878 881 842 792 833 914 914 850 850 842 831 844 892 897 844 886 881 861 575 1147 567 1192 931 825 828 836 933 911 883 842 839 844 833
228 768 0.1914 883 919 881 900 869 597 1136 931 875 911 917 828 581 1128 975 917 592 1139 625 1128 639 1283 622 1153 836 881 922 881 900 881 856 853 861 889 856 961 925 594 1081 542 1136 594 1200 581 1083 531 1133 594 1158 600 1156 528 1061 569 1178 672 1119 608 1147 547 1053 564 1133 883 911 817 769 792 894 919 897 858 833 769 572 1161 950 919 869 903 828 489 1200 947 875 872 858 786 822 861 1128 594 1272 811 806 825 883 1081 956 844 814 900 928 939 978 928 450 1206 872 864 906 1000 953 853 814 467 1267 575 1419 592 1100 531 1211 611 1319 650 1172 531 1131 597 1183 603 1267 583 1061 544 1128 572 1236 689 1111 531 1103 653 1325 717 1219 550 1069 592 1278 628 1192 619 1094 831 844 919 892 997 639 1094 825 867 922 894 928 522 1094 800 867 936 894 889 839 819 842 903 867 853 850 867 814 797 836 867 917 881 861 775 814 828 872 906 869 500 1142 858 864 867 861 872 844 811 817 875 858 900 922 886 792 836 894 925 964 922 900 822 925 1019 992 897 872 481 1208 925 1000 936 928 1008 875 839 547 1375 917 872 889 858 853 947 997 958 831 869 853 914 978 928 847 808 919 886 900 878 594 1136
228 1536 0.2148 847 858 914 811 853 925 956 875 883 1050 908 925 883 919 839 917 1003 856 686 1214 1153 1067 956 853 900 1014 994 961 919 836 803 956 1061 978 914 808 783 836 933 967 939 822 506 1186 858 906 944 894 858 500 1164 836 567 1206 978 883 808 497 1003 592 1350 658 1119 517 1056 572 1231 678 1172 564 1067 561 1144 614 1339 608 1186 572 1125 553 1294 722 1256 622 1103 586 1147 744 1608 700 1089 611 1267 711 1489 711 1114 581 1256 703 1372 683 1114 547 1217 664 1264 642 1186 578 1147 653 1153 586 1153 614 1097 544 1200 581 1192 919 853 744 789 625 1100 961 903 833 756 875 950 703 1050 858 806 794 856 639 1086 928 900 536 1053 517 1225 914 567 1256 853 736 939 1078 956 897 850 833 592 1197 1089 944 814 1022 869 925 942 967 858 644 1086 567 1092 894 1006 939 836 744 883 839 919 939 861 806 819 850 847 875 886 861 786 803 869 825 797 928 903 850 522 1075 822 492 1261 925 808 781 817 744 522 1347 883 833 786 836 858 911 869 925 547 1172 742 972 950 936 567 1222 522 1100 892 997 1036 889 839 825 889 944 1025 1003 822 575 1075 964 944 903 697 1078 836 836 931 611 1183 942 828 772 800 917
228 1792 0.1875 903 892 889 794 783 858 942 906 853 858 758 856 847 950 858 889 928 847 764 800 883 564 1219 914 814 786 842 772 622 1378 567 1144 544 1156 914 981 892 919 556 1075 547 1217 606 1231 633 1100 522 1211 656 1339 897 833 786 819 594 1219 647 1100 839 856 839 503 1181 900 856 839 803 789 808 753 1086 872 794 500 1069 544 1172 892 853 783 814 828 528 1147 883 861 786 847 794 825 833 553 1292 550 1047 803 814 867 628 1217 517 1119 847 908 917 644 1083 617 1125 839 858 892 578 1242 625 1125 517 1183 922 889 994 856 769 811 908 914 778 1000 844 806 839 936 586 1150 569 1203 536 1150 558 1200 558 1197 617 1044 822 897 956 886 839 506 1100 867 900 911 869 844 514 1164 844 847 853 864 856 883 764 814 517 1256 892 883 847 789 517 1217 981 903 872 883 844 572 1250 897 889 819 911 831 917 956 964 917 861 822 819 844 908 942 861 811 833 875 539 1289 642 1100 708 906 847 586 1128 864 925 808 819 775 861 867 881 883 769 814 533 1192 922 886 811 586 1008 500 1142 833 889 872 842 539 1042 528 1153 597 1136 850 792 814 844 944 564 1225 833 806 828 856 922 525 1150 925 572 1144
233 0 0.2773 772 531 661 597 397 767 531 681 600 383 767 617 592 358 817 594 578 594 603 597 406 764 439 733 614 397 508 775 581 586 600 586 581 583 458 653 597 406 764 586 581 419 758 583 567 581 472 667 364 817 503 633 586 408 769 528 625 575 411 758 544 622 578 558 494 661 572 406 719 553 581 572 575 517 331 847 408 758 569 567 558 564 394 744 581 561 403 717 575 583 564 567 389 731 567 581 475 653 575 392 742 586 567 575 564 569 372 764 528 617 569 381 747 422 722 569 572 575 556 450 706 569 397 722 539 639 578 400 733 575 569 428 739 572 556 447 689 589 403 711 447 314 842 586 578 569 564 558 572 586 561 561 558 350 769 564 553 564 556 358 744 578 556 392 717 553 567 564 561 394 725 553 556 564 564 558 536 375 733 553 553 567 539 553 547 561 564 561 556 558 561 550 569 408 717 572 556 581 578 564 564 561 583 561 589 589 381 764 506 667 586 397 728 539 628 572 367 811 350 789 392 806 461 717 569 397 733 428 692 600 417 733 525 647 417 728 383 758 578 586 447 703 586 383 761 358 828 422 736 458 719 603 375 794 400 769
233 256 0.2656 422 772 458 378 883 414 769 603 403 767 406 781 611 400 764 417 769 411 700 611 414 742 539 653 603 383 775 408 786 411 772 469 722 583 406 803 594 344 828 592 575 400 764 578 414 728 603 428 744 397 753 600 567 586 594 572 403 728 539 622 581 556 447 692 561 575 353 578 672 578 583 583 578 392 731 439 711 594 406 744 408 744 581 386 786 519 628 586 572 469 683 569 569 508 656 583 403 744 411 697 597 589 600 581 575 586 597 578 567 294 858 469 708 600 408 761 389 792 417 783 586 578 600 583 589 603 569 494 428 825 603 492 658 575 419 731 600 586 586 494 453 800 583 583 575 583 575 581 589 433 669 611 586 586 569 375 756 589 572 594 594 567 575 386 778 478 700 572 389 753 392 786 589 583 575 594 603 578 586 589 592 567 597 603 572 575 394 767 575 606 569 581 453 356 914 458 736 583 581 606 594 406 764 592 369 814 606 597 594 575 394 797 597 581 592 592 394 778 606 594 589 586 592 417 764 583 583 364 822 458 725 594 583 561 639 586 589 594 386 783 614 619 389 792 436 772 611 603 581 581 403 775 600 592 586 581
233 512 0.2617 394 797 589 586 353 822 592 597 417 764 600 583 414 794 425 753 403 792 464 764 611 606 586 611 378 842 594 594 369 828 433 786 350 828 458 753 600 589 592 600 394 792 614 592 358 831 625 592 367 789 589 589 364 828 594 592 353 831 622 600 400 778 608 597 403 808 608 586 531 681 600 589 519 658 442 425 922 608 589 594 611 408 792 597 608 400 806 625 608 400 797 608 611 608 581 400 781 603 594 414 786 594 589 419 794 611 583 397 769 600 608 394 778 586 600 425 750 575 575 361 808 603 594 397 764 600 614 406 772 589 592 408 783 614 586 367 806 617 606 358 811 597 603 394 789 617 594 347 839 631 592 358 828 600 589 367 825 597 583 386 800 614 589 386 767 600 592 394 797 603 586 406 814 614 589 594 600 475 717 619 592 592 400 794 581 378 858 425 789 572 667 606 367 828 567 661 608 589 547 639 608 503 458 825 428 783 628 600 544 658 608 586 597 428 742 586 589 564 383 814 414 772 583 586 608 583 586 578 597 603 581 564 572 594 578 575 581 569 514 608 597 400 753 564 583 586 592 358 808 597 564 586 597 356 797 539
233 768 0.2617 619 578 592 514 636 619 583 606 603 608 392 772 497 717 617 603 594 583 361 850 603 597 356 836 608 625 361 856 614 625 372 867 608 597 406 772 619 611 403 767 592 600 408 781 589 589 414 753 600 608 356 808 600 617 406 767 592 586 408 764 603 581 400 758 600 608 397 758 594 600 367 811 614 475 511 772 369 839 603 581 589 581 414 769 583 586 400 775 611 592 408 750 608 586 367 828 589 578 417 781 583 586 397 764 581 600 383 383 931 603 611 378 817 594 592 375 803 608 600 367 814 611 608 361 811 608 600 353 819 622 592 592 589 614 364 817 586 589 375 817 606 589 372 797 614 606 358 819 547 653 606 603 486 706 589 603 500 631 664 589 592 578 603 406 769 589 594 600 597 369 786 589 589 353 831 614 578 400 772 619 589 483 686 567 581 481 692 581 578 508 647 614 583 517 578 661 586 592 606 586 411 747 578 389 839 597 589 414 778 617 603 358 833 494 747 617 586 461 736 608 606 472 728 594 597 497 708 606 589 486 708 625 611 483 575 381 953 464 756 608 603 589 594 403 772 603 586 611 603 369 797 600 600 361 842 608
233 1024 0.2891 597 392 797 628 589 403 758 606 572 414 769 597 581 481 711 597 364 814 608 597 603 594 403 786 594 597 600 589 564 408 444 908 475 722 600 575 456 381 931 608 589 581 583 425 761 561 361 825 408 783 425 747 544 644 358 822 603 600 358 819 572 628 589 583 583 572 592 597 461 453 806 392 819 461 708 597 369 819 361 861 603 583 597 619 436 742 594 589 450 722 614 586 472 703 608 606 483 697 594 408 786 611 592 603 569 583 603 583 586 569 572 439 722 594 394 764 475 711 606 397 769 594 586 581 594 592 578 461 686 600 392 761 386 767 403 769 456 717 583 350 808 414 769 397 758 467 689 592 406 753 408 672 400 781 528 619 583 406 761 536 658 586 575 453 742 606 594 586 586 583 411 764 447 728 597 592 494 439 808 436 739 600 406 772 592 583 589 603 400 767 461 683 600 600 486 697 608 586 492 714 603 586 478 706 597 594 478 683 572 403 783 575 569 575 583 575 392 789 464 694 581 400 797 589 567 414 761 592 592 481 708 583 386 817 606 597 392 800 600 603 414 778 606 594 378 842 611 581 406 775 603 597 411 761 581 589
233 1280 0.2734 414 764 597 586 525 653 611 406 789 600 592 606 594 600 575 444 719 592 592 464 714 578 358 853 589 594 589 594 586 600 528 653 581 389 803 500 672 564 397 758 589 581 594 583 569 594 606 592 581 575 583 575 586 583 572 569 564 572 589 550 289 864 428 739 592 597 508 472 747 603 589 606 578 386 761 583 569 414 719 572 586 597 569 397 761 583 572 589 594 567 569 567 581 586 397 736 575 572 558 569 592 558 394 742 531 650 525 617 575 597 536 631 589 350 800 589 603 578 583 561 583 528 633 594 397 764 586 592 603 592 392 769 597 592 417 775 581 581 411 753 400 783 436 725 594 364 486 928 600 572 403 789 594 578 581 589 350 814 603 569 567 578 583 564 611 378 756 478 678 383 797 422 719 586 411 764 397 758 433 722 597 586 472 694 558 414 789 406 750 408 756 461 714 600 397 758 525 661 597 397 756 400 775 419 778 597 394 767 542 658 594 403 767 400 778 419 786 400 769 594 603 478 703 589 581 478 689 586 400 744 392 786 622 578 589 583 369 792 600 600 403 744 592 606 467 692 581 581 472 497 792 481 700 578 581 486
233 1536 0.2266 681 575 567 464 672 572 406 733 528 619 583 408 750 447 681 597 575 592 583 567 572 564 592 575 575 558 558 569 564 575 411 714 564 567 378 761 403 736 572 564 378 769 414 719 558 569 583 561 353 756 358 767 572 581 569 567 547 581 594 569 569 561 569 417 717 572 567 375 744 572 583 394 736 564 569 561 578 567 575 567 567 575 364 783 564 556 561 564 575 556 569 564 550 564 569 561 564 553 556 558 400 739 575 567 556 561 578 561 567 558 558 408 714 403 744 408 308 936 603 569 575 569 572 575 583 583 575 572 564 581 600 567 386 742 467 692 592 600 569 403 728 558 636 583 383 747 486 347 894 600 578 389 758 492 694 592 383 761 517 667 600 389 764 394 783 608 586 578 578 375 786 403 797 419 744 597 606 439 725 586 578 442 719 606 392 761 389 792 606 575 392 756 603 569 408 769 581 569 364 811 586 581 353 792 592 589 589 583 408 736 592 600 583 572 400 742 428 722 586 575 572 578 408 767 589 558 422 664 583 406 756 422 733 592 583 431 719 569 569 444 700 586 578 472 650 581 403 756 589 564 569 569 394 767 458 700
233 1792 0.2773 561 392 758 511 631 567 394 739 478 667 575 358 769 403 781 578 569 581 578 400 744 597 569 422 711 592 592 578 564 364 697 592 589 600 575 411 736 439 753 597 572 569 586 581 586 575 400 683 517 678 586 586 431 369 917 472 733 583 586 586 597 414 750 575 578 411 656 606 600 419 731 589 611 456 719 592 581 453 708 606 386 675 578 589 603 567 572 397 744 581 581 425 736 592 292 872 603 589 400 736 408 772 431 742 589 569 581 594 394 764 583 575 575 592 594 569 581 561 403 758 583 569 564 575 389 747 592 561 564 569 589 586 575 558 411 739 497 661 597 572 564 450 494 811 481 672 497 656 586 394 775 508 644 592 600 578 581 581 392 756 464 714 594 581 572 581 417 750 575 572 592 578 408 469 856 433 728 600 589 581 569 572 414 753 500 672 583 569 431 381 903 458 708 583 392 758 522 653 578 394 761 533 389 822 586 589 536 628 597 381 750 511 686 586 394 747 514 642 456 719 583 403 736 597 606 403 742 586 597 392 761 611 581 403 753 614 589 408 761 589 589 408 789 586 586 403 772 611 581 394 739 517 656 600 581 425
233 2048 0.2500 719 586 594 567 589 572 572 567 581 589 569 575 558 581 586 567 567 567 581 564 408 753 581 586 394 778 436 767 581 583 603 464 706 597 581 411 733 614 589 592 567 394 772 614 581 403 758 581 589 419 758 511 656 597 578 589 414 756 594 589 408 772 603 578 397 775 483 733 597 589 411 567 811 406 406 900 606 589 597 603 394 750 597 614 403 778 606 594 403 778 619 592 367 808 564 628 583 567 578 600 586 583 422 758 589 594 378 833 606 583 347 839 614 617 589 594 594 608 403 786 597 589 397 808 622 597 400 800 633 611 403 789 597 600 400 811 603 600 389 806 625 603 400 786 600 603 358 850 603 583 414 797 589 572 403 775 594 589 419 767 594 589 419 778 597 586 397 786 606 608 392 778 592 600 425 764 583 581 425 756 603 586 414 756 603 603 406 778 592 586 403 767 614 575 414 750 611 589 425 742 594 583 539 656 594 583 519 361 908 361 806 600 589 514 653 608 578 475 406 869 458 725 561 575 578 575 411 753 589 564 553 386 808 431 708 536 600 575 561 489 644 550 564 503 411 781 558 556 556 492 417 803 572 461 653 578
233 2560 0.2539 764 614 600 406 756 589 589 422 758 592 583 406 753 592 600 397 756 594 606 403 758 597 583 411 758 608 586 408 744 606 611 394 756 589 597 389 781 614 567 400 739 611 589 414 742 592 586 417 750 408 769 439 717 597 578 569 572 586 575 592 417 750 561 375 858 608 608 353 822 597 611 408 789 600 583 417 789 597 578 400 778 608 614 408 794 597 617 417 789 597 594 364 814 606 597 350 808 600 614 356 828 597 606 397 783 611 594 400 778 622 603 369 803 597 589 369 847 592 586 356 817 600 597 389 778 606 606 406 786 603 583 406 797 597 569 408 744 578 597 422 744 575 583 553 642 594 350 817 586 592 397 775 589 561 400 786 597 561 400 761 575 592 364 817 581 589 414 786 597 572 394 769 603 586 400 781 586 578 383 800 583 578 403 758 603 594 400 750 589 583 414 758 583 575 408 744 592 594 358 789 592 606 397 761 592 589 406 764 608 583 406 753 608 600 408 756 603 589 397 786 608 592 400 781 625 586 403 753 617 586 403 797 606 586 400 789 603 589 389 781 597 597 414 767 606 594 414 786 611 583 392 786 617 603 400 761
234 1280 0.1953 642 658 650 669 675 656 644 667 678 669 644 656 656 675 678 606 586 483 536 481 461 547 544 586 617 589 636 642 553 533 614 650 672 661 647 539 567 631 528 531 569 550 525 486 450 417 431 442 464 508 428 458 456 450 425 419 450 439 425 411 439 458 414 417 394 411 994 731 692 708 697 686 667 678 683 689 683 675 669 697 675 667 669 678 669 678 672 658 669 700 669 667 669 678 672 683 667 656 658 692 669 650 642 664 658 667 661 647 653 678 667 653 639 656 647 656 658 647 644 667 667 658 642 653 650 669 675 650 642 669 678 661 642 647 647 667 678 642 636 658 672 650 633 653 650 658 667 653 642 653 675 650 639 644 661 656 653 653 642 642 672 669 656 650 658 658 675 672 661 650 672 681 672 650 650 650 672 678 647 647 678 689 661 650 658 658 669 683 644 644 667 683 653 636 647 653 658 672 647 647 647 681 653 647 650 667 653 664 667 658 644 675 667 661 644 669 667 675 672 678 658 694 683 678 664 681 669 683 672 667 653 681 661 667 653 664 653 675 672 661 647 683 678 667 650 664 653 675 664 650 642 681 678 661 642 658
