# physionet r-r rhythm segments, distilled
# source PhysioNet afdb / nsrdb / mitdb, ODC-BY 1.0
# class EctopyLight
# segment_beats 256
# selection every 1th of 87 segments in this class
# columns record start_beat premature_fraction rr_ms...
# lead chest, ambulatory Holter ECG - NOT wrist PPG
100 1024 0.0273 781 764 822 828 803 817 808 792 772 775 800 836 831 792 792 767 792 775 822 822 850 811 772 778 781 800 817 839 814 814 794 769 758 819 858 839 772 750 789 797 783 789 825 842 814 731 750 811 822 772 789 800 794 589 906 839 844 839 808 778 642 881 797 767 797 844 831 736 756 778 817 800 792 803 819 775 736 772 611 1022 875 833 783 786 808 800 814 822 839 814 775 772 797 794 817 625 1000 814 808 783 589 1008 883 836 800 814 794 831 811 847 853 828 786 783 797 847 872 822 836 800 794 778 797 850 853 842 800 806 806 811 808 842 836 842 786 778 814 844 856 819 847 797 814 792 806 858 858 839 778 803 800 811 819 833 847 819 778 769 792 817 833 839 806 808 786 797 800 847 839 853 811 775 797 800 819 844 847 806 811 781 764 814 817 822 806 789 769 797 794 794 853 819 808 800 578 953 853 847 844 844 808 767 797 781 839 856 828 783 800 792 600 944 817 836 819 764 753 806 792 822 828 808 828 797 769 775 853 828 819 797 783 786 806 794 822 850 828 775 747 747 775 803 811 800 811 783 747 744 803 781 817 811 800 756 778 800
100 1280 0.0234 789 811 856 861 761 769 808 822 792 833 864 794 797 789 814 792 836 844 822 747 772 792 803 764 825 844 811 717 769 803 847 789 800 842 811 722 747 800 842 786 803 803 792 611 897 822 847 842 833 772 758 778 811 811 803 828 800 764 775 756 806 817 831 800 800 761 794 789 806 825 836 806 783 781 783 831 833 811 833 811 772 758 803 828 856 828 794 825 803 792 822 858 847 825 786 778 803 797 825 833 825 786 794 767 783 819 847 822 811 775 792 811 800 561 1025 842 797 764 789 794 825 817 814 828 772 772 794 806 844 844 833 792 797 783 817 819 822 842 817 786 764 800 814 819 817 806 806 786 753 806 839 836 817 789 789 786 789 822 833 844 806 781 778 786 808 850 844 814 814 806 769 778 811 850 822 797 758 808 781 778 817 842 814 786 772 769 817 803 803 828 811 769 778 781 806 833 836 811 633 906 786 597 961 828 847 825 764 769 769 819 842 825 806 839 781 769 797 828 844 839 789 792 817 789 783 858 828 847 789 778 781 833 819 831 833 806 786 783 789 536 1028 839 825 794 761 800 814 550 1008 853 831 783 783 786 842 839
100 1792 0.0273 819 819 844 861 808 764 783 794 842 850 822 842 822 797 775 819 831 856 817 775 797 800 742 872 847 594 1000 792 794 822 839 844 836 833 811 808 778 828 869 856 817 800 789 808 808 819 839 850 803 778 789 797 839 839 850 828 817 778 808 819 836 861 831 806 797 789 814 819 842 814 819 792 781 800 828 858 831 825 778 794 783 814 847 847 850 794 794 792 825 831 828 833 822 789 783 783 833 861 842 822 808 808 783 817 839 847 847 797 758 794 781 789 814 536 1131 786 767 761 839 828 817 808 792 783 794 772 808 869 836 775 786 781 803 819 817 856 850 800 772 792 789 842 825 806 836 803 786 775 808 847 850 819 767 803 794 803 814 833 839 828 781 750 819 817 825 797 803 786 614 914 783 856 831 806 781 783 781 800 803 833 606 989 789 794 539 950 850 831 828 819 792 772 778 822 856 839 803 803 811 814 808 850 839 861 800 778 792 833 656 992 858 811 808 781 803 842 864 833 817 792 789 792 806 836 842 678 950 789 786 808 831 831 825 808 792 767 758 697 889 833 783 767 739 756 744 756 775 769 778 733 694 683 719 747 758 753
105 0 0.0312 728 692 714 714 714 728 761 756 731 703 692 697 722 756 742 747 733 739 703 703 428 1006 756 758 744 722 694 722 725 431 1022 761 736 733 714 694 681 722 764 736 731 722 711 700 708 711 728 489 1006 736 708 689 697 686 733 747 742 717 733 719 694 697 708 733 761 750 728 711 700 717 711 733 742 750 733 725 706 703 692 742 475 1039 728 728 697 703 711 706 728 736 764 733 692 689 458 969 753 750 736 714 728 708 692 703 711 739 753 747 708 681 706 722 711 733 744 733 725 708 689 697 703 736 758 747 719 697 689 711 719 725 733 744 767 717 683 692 719 731 758 742 444 994 728 703 692 697 733 728 742 739 700 675 708 711 717 711 733 731 708 706 683 686 694 747 736 733 697 683 672 700 706 692 719 733 747 431 942 681 686 694 731 733 733 703 700 703 694 683 708 739 744 736 708 694 678 714 717 736 733 736 711 708 714 697 697 739 772 731 708 708 692 706 717 717 739 742 758 706 697 686 414 978 764 747 731 714 708 706 706 692 725 742 758 736 706 692 689 722 728 744 722 742 703 703 703 697 692 736 761 731 694 694 692 686 711 708
105 256 0.0273 728 447 1003 719 692 672 686 694 736 747 722 703 694 708 683 694 714 739 736 744 700 689 686 442 1003 753 725 736 722 711 389 1000 717 739 767 744 711 692 700 700 722 725 747 725 744 714 692 683 708 706 744 756 733 692 708 717 689 692 728 736 736 739 703 678 689 728 719 742 725 728 703 714 706 692 706 753 761 736 697 697 683 706 722 728 753 739 750 711 697 689 711 722 756 753 739 700 703 722 706 706 744 747 747 750 703 683 708 750 736 739 753 744 714 708 703 711 728 772 753 739 708 703 689 731 744 744 739 761 733 706 689 700 719 753 764 722 717 433 986 697 703 725 742 728 728 703 694 675 711 739 739 717 733 714 697 703 689 706 719 758 417 1022 700 694 678 711 736 736 725 739 728 689 675 694 708 736 753 725 706 700 711 689 708 725 750 731 739 708 692 681 711 739 753 731 728 714 708 708 694 711 472 1031 744 711 689 697 697 708 736 744 717 742 719 700 678 708 714 750 764 733 697 697 728 697 700 742 753 742 739 706 394 989 742 739 750 739 728 706 714 711 708 722 753 764 736 700 692 703 708 725 733 739 731 736 694 692
105 512 0.0234 683 719 728 758 744 731 686 703 717 714 708 747 742 750 725 700 689 703 753 742 742 733 736 692 714 708 711 733 775 756 731 703 689 694 733 750 742 733 750 728 703 689 708 733 758 758 733 719 697 714 708 719 733 750 408 1053 711 697 689 722 753 756 717 719 700 697 711 703 717 736 767 722 697 689 700 694 722 742 742 728 739 714 700 697 722 731 764 761 717 697 703 714 436 1006 739 739 739 719 686 692 692 731 739 744 731 708 689 697 703 703 719 744 764 722 681 686 700 703 725 419 1064 733 731 706 692 692 722 458 1028 769 719 686 708 717 714 719 747 736 736 725 686 697 714 756 742 744 739 722 700 708 706 725 731 753 744 728 689 689 483 947 750 731 739 714 728 689 692 692 733 750 742 733 714 675 706 714 714 708 742 725 722 719 681 683 717 761 733 731 728 708 694 708 708 725 731 764 744 717 692 689 697 739 756 742 736 731 722 703 692 711 742 756 747 717 706 686 714 703 722 725 753 733 714 706 694 689 728 761 747 722 728 697 703 714 717 736 744 767 733 703 694 708 711 753 750 744 731 739 711 706 708 731 456 1044 750 708
109 1280 0.0234 694 686 728 742 736 725 747 700 672 683 686 733 750 725 711 586 850 664 700 706 733 747 728 692 708 683 681 683 717 739 750 722 692 694 697 694 550 881 725 756 700 683 692 717 700 703 742 728 742 703 686 694 731 722 719 756 728 728 706 692 694 750 744 728 742 722 717 706 697 703 769 758 725 728 703 722 700 700 728 783 750 722 714 689 711 697 708 739 775 736 700 708 686 711 714 731 744 772 733 694 697 700 722 731 736 753 756 714 683 703 714 744 733 728 756 725 689 681 700 714 761 744 725 758 719 697 700 725 753 778 750 722 739 711 692 706 731 767 764 736 711 739 703 697 722 739 758 747 711 692 722 692 694 736 733 744 739 703 678 711 706 714 728 742 736 733 689 683 719 736 739 725 664 814 706 694 686 725 744 744 722 731 711 706 631 747 731 764 744 719 711 689 706 697 697 744 769 736 700 703 686 706 708 714 753 767 722 686 697 694 714 725 578 919 761 728 689 697 711 736 733 731 744 736 697 683 694 711 761 739 719 739 711 686 672 703 725 750 736 711 728 706 692 686 722 750 767 733 703 719 700 697 703 611 869 756
114 0 0.0430 1156 1158 1139 1144 1092 1067 1178 1117 1092 1086 1044 1144 1131 1086 1081 1064 1058 1153 1108 1086 1058 1067 1147 1175 1108 1114 1144 1128 1197 1156 1092 1114 1092 1131 1172 1081 1081 1064 1161 1125 1125 1064 1061 1103 1097 1111 1086 1008 1014 1114 1078 1089 1042 1031 1028 1125 1089 1094 1036 1033 1094 1111 1075 1083 1033 994 1122 1078 1058 1064 1008 1028 1108 1083 1056 1044 994 544 1622 1061 1089 1031 1000 1094 1114 1033 1064 1050 1017 1119 1111 1064 1075 1025 1111 1119 1094 1081 1083 1047 1133 1119 1097 1050 1075 1136 1125 1114 1083 1097 1108 1133 1136 1111 1058 542 1653 1150 1097 1094 1061 1117 1114 1100 1094 1058 1036 1142 1097 1078 1100 1039 1111 1119 1125 1089 1086 1031 1147 1128 1064 1094 1050 1050 1144 1078 1053 1075 997 1131 1117 1061 1067 1067 1061 1142 1114 1078 1083 1053 1122 1153 1089 1069 1114 1069 1153 1136 1058 1094 1042 1131 1150 1067 1075 1067 611 1550 1108 1056 1044 986 1128 1069 1100 1044 1056 1047 1136 1111 1122 1083 1039 1183 1128 1117 1111 1056 1083 1144 1103 1111 1039 1033 522 1675 1058 1067 1014 1014 1092 1078 1019 1042 1008 1033 1111 1078 1050 1067 1017 969 1297 1089 1106 1056 508 1100 1561 1083 1108 617 1511 1142 1103 1078 836 1303 1144 1161 1078 614 1525 1131 1139 1094 1067 1092 1039 1139 1114 1089 1056 1044 1125 1058
114 256 0.0859 1169 1081 1072 1083 1142 1122 1117 944 1092 1281 1119 1100 536 1558 1133 1139 1083 611 1511 1028 1150 1081 514 1533 1047 992 1106 1058 1019 1019 994 992 1092 1033 1042 1042 1017 1056 1122 1031 1056 1025 1008 1081 1106 1056 1053 1078 1036 1144 1125 1050 1056 1028 1075 1075 431 1583 1033 972 1053 1083 997 1019 1000 1003 1061 1086 1039 1017 1031 1047 1069 1094 1044 997 1033 1069 1094 917 1228 1036 997 1111 1039 1097 1042 642 1431 1122 1067 1069 1047 983 1094 1114 1047 1108 1042 1042 1122 1122 1064 1083 894 1228 1139 1089 1058 1061 1014 1111 1133 1067 1078 1083 1050 642 1614 1089 1103 1019 631 1619 1094 1061 1058 761 1411 1147 1044 1050 1025 1075 1092 1072 1028 1058 1033 1089 1111 939 1156 1047 1031 1106 1078 1061 1036 1050 1111 1131 1067 1100 1061 572 1647 1150 1133 1083 1097 1178 1169 1128 1114 664 1606 1181 1114 1119 1083 1092 1192 1103 1100 1117 992 1236 1136 1086 1083 1050 803 1442 1075 1089 1047 1047 1111 1144 1064 1058 1094 1097 1147 1128 1103 614 1558 1186 1175 1078 614 1514 1158 1131 1039 1097 1039 1078 1097 1125 1050 814 1225 1114 1103 1081 644 1439 511 1581 1100 1047 1019 1011 1014 1103 1083 1078 1050 1008 1128 1125 1081 1094 1050 1019 1153 656 1519 1075 1011 1083 1128 1006 1158 1072 1028 1158 1142 1078 1111 1053 1100 1147
114 512 0.0469 1053 1114 1086 1031 1136 1108 1072 1047 578 1522 1150 1100 1069 472 1556 1117 1075 1047 994 1006 1000 1014 1047 1006 997 975 964 1022 978 1014 967 953 964 1028 1031 981 975 931 972 997 997 981 986 936 928 956 1006 958 919 933 897 950 967 939 917 936 906 872 1000 961 928 947 914 886 964 992 947 906 922 919 869 1006 942 900 917 817 928 908 972 942 881 897 911 869 936 978 908 917 903 914 939 958 983 925 911 922 933 964 997 944 956 919 922 1028 1019 1025 975 983 928 1081 1017 1011 1000 947 939 1033 1011 967 983 936 911 1044 1006 994 986 969 947 1025 1072 1014 1039 989 964 1081 1078 997 1064 997 972 1061 1064 994 1028 978 956 1042 1044 719 497 506 475 789 425 950 1278 1050 1003 1008 947 1025 1056 1025 1011 1011 956 1086 1058 1022 997 1011 969 1047 1064 1031 1000 1025 1003 1072 1081 1053 1019 750 1361 1086 1072 1039 967 1036 1083 1061 1022 1050 1003 1019 869 1319 1067 1058 1025 1067 1108 636 1489 1039 992 1086 1067 1050 1019 1003 919 1050 1031 997 975 944 900 1014 1019 931 942 944 917 922 1011 983 961 933 942 903 1028 1000 936 967 967 922 1022 1053 992 986 983 939 1011 1056 967 992 961 939 1008 1044 975 956 944 931 983 1011
114 768 0.0234 986 972 944 958 992 997 1050 969 953 978 989 1019 1022 997 961 956 781 1275 1056 1025 983 997 986 1092 1022 1019 978 978 1033 1083 817 1256 992 978 1053 1081 1003 1053 981 967 661 1453 1003 1025 978 944 1056 1053 983 1019 964 917 1006 1033 961 1003 981 903 1033 1050 969 994 972 942 1017 1058 1017 997 981 931 1050 1028 1006 989 986 947 994 1025 992 950 956 919 983 1028 992 947 942 947 936 1006 994 967 939 917 972 983 1000 936 956 942 919 1028 978 942 983 919 914 1056 1019 983 981 969 931 1058 1036 981 953 950 919 964 1031 978 953 967 950 933 1044 983 958 953 942 922 1058 997 956 964 964 922 1025 1022 914 956 928 886 964 1000 967 914 931 956 942 1036 1006 936 950 950 953 989 1025 944 956 950 900 1008 1042 972 964 947 947 1031 994 989 947 947 894 992 1000 978 961 906 517 1344 797 1106 936 536 1275 869 997 942 906 939 878 883 919 997 956 908 931 903 886 978 975 922 958 928 892 969 1031 992 939 969 928 944 1000 986 933 953 939 894 1003 1031 933 958 958 892 1003 992 953 925 936 892 908 967 967 897 911 914 858 969 936 925 908 908 911 931 981 986 942 933 939 908 972 961 981 922
116 256 0.0352 753 747 753 744 750 761 744 747 753 747 750 731 758 764 731 478 1031 756 736 744 733 758 742 731 767 742 733 739 750 750 742 739 764 739 728 756 736 736 753 736 750 750 739 742 747 742 750 736 756 747 742 742 725 744 761 739 742 761 750 739 753 747 767 744 758 764 758 753 736 761 769 753 758 769 764 761 761 761 772 756 767 761 742 761 731 742 764 736 767 519 978 767 478 1019 525 1000 744 756 731 750 722 744 761 739 744 758 756 767 761 772 789 778 769 789 778 767 756 775 783 756 778 775 769 775 492 1011 769 744 469 1017 742 722 731 719 753 731 744 781 775 772 781 778 803 769 769 797 772 744 769 758 781 764 761 783 772 761 756 756 772 744 750 761 758 733 753 769 772 758 764 775 753 764 742 739 769 733 731 761 742 728 739 736 758 742 733 756 756 744 739 747 767 733 739 761 744 725 742 744 753 742 736 767 750 508 975 742 758 731 733 758 742 731 761 750 758 761 750 767 756 747 758 744 767 767 750 769 558 928 761 747 756 753 742 769 756 744 481 1014 758 758 744 753 756 744 761 733 742 772 733 744 761 756 719 742 739 753
116 512 0.0820 736 736 758 500 978 750 747 764 744 747 783 758 742 758 750 764 753 742 769 733 725 742 733 744 742 731 753 747 719 758 736 750 769 528 978 753 750 525 956 758 750 742 767 758 736 756 739 497 997 742 747 497 956 742 722 728 753 728 761 775 753 533 972 739 761 739 728 742 739 722 725 731 750 714 736 758 733 722 736 722 733 739 714 747 731 722 739 739 750 744 742 756 747 511 956 728 719 744 711 714 742 728 711 733 725 508 961 736 750 728 717 572 883 725 747 700 722 739 719 717 728 731 739 736 736 522 972 728 733 722 747 731 722 744 736 722 744 494 967 756 731 747 739 739 733 542 922 756 719 728 750 722 736 733 725 525 972 739 756 756 733 747 758 508 1019 756 789 514 992 758 750 764 756 756 758 761 731 739 750 758 728 731 761 739 733 742 733 758 744 494 1000 747 719 733 725 756 725 725 758 736 717 750 736 731 761 736 744 750 742 533 931 756 733 733 731 744 739 733 733 728 758 739 739 508 992 725 744 733 736 731 731 750 733 739 756 739 758 764 753 503 1031 758 769 758 758 506 1022 789 589 942 769 756 767 772 761 792
116 768 0.0938 489 1033 781 769 500 1022 761 769 525 972 750 747 767 739 733 769 725 719 506 961 736 733 722 747 733 717 506 956 750 742 736 750 750 742 503 1031 783 594 372 1083 803 786 508 1028 803 794 503 1064 775 753 492 1031 761 764 761 792 778 775 806 786 817 792 792 811 778 767 781 742 775 744 731 769 747 731 750 756 531 989 747 769 750 728 753 736 775 764 753 797 494 1044 781 786 517 1042 781 792 781 758 781 778 814 772 794 814 786 778 778 767 789 772 767 767 506 1017 756 767 764 750 783 756 756 772 767 778 775 500 1036 761 753 764 739 503 1000 742 761 744 728 753 750 761 769 761 767 775 753 761 764 497 1019 761 786 750 744 769 758 789 764 492 1028 767 733 756 747 758 758 753 789 772 761 783 783 811 775 783 806 786 781 775 781 792 775 789 778 781 775 764 492 1069 764 769 781 761 494 1031 758 783 761 772 494 1039 781 764 517 1036 769 792 769 761 786 789 794 811 808 814 808 811 789 803 817 775 789 803 767 786 781 783 789 783 803 786 786 792 800 817 575 981 811 781 764 772 778 789 781 800 783 775 803 781 808 783 764 814 786 758 781 778
116 1024 0.0273 794 769 778 778 775 769 750 781 783 747 472 1058 747 767 750 742 764 761 747 764 761 764 758 781 781 761 792 772 489 1047 761 758 783 772 767 792 778 772 789 792 783 775 803 783 764 792 772 778 786 781 803 786 775 794 789 800 778 778 797 786 761 767 769 792 764 775 783 781 781 778 500 944 800 517 1050 769 778 761 775 786 769 806 525 1014 797 775 792 772 775 789 786 772 767 783 792 775 797 800 772 800 797 789 789 786 792 786 764 764 769 789 761 756 792 761 753 772 756 775 753 758 764 758 750 739 750 769 747 739 778 761 744 772 772 783 767 769 783 775 769 761 772 797 764 778 792 778 775 778 778 789 775 781 789 767 772 758 775 772 753 772 761 761 772 758 772 769 758 775 772 750 753 764 769 769 761 789 769 758 792 764 778 778 756 806 778 767 775 778 786 764 781 786 781 786 758 778 772 756 769 769 750 758 767 764 772 767 797 783 764 808 775 794 781 764 794 781 753 764 775 778 758 778 769 767 486 1019 769 769 744 747 764 744 494 969 742 756 733 742 747 756 750 747 753 778 756 750 786 747 739 761 764 775 761 764 781 772
116 1280 0.0508 761 761 758 769 750 744 778 739 489 986 742 753 739 739 767 753 742 747 750 756 747 733 772 742 725 761 497 994 764 747 767 753 744 753 742 756 656 831 767 744 728 761 742 761 756 747 772 764 736 758 756 764 747 742 769 739 725 761 725 758 756 744 778 753 744 761 753 761 739 747 772 753 719 761 747 769 744 739 775 761 736 767 750 761 753 742 781 744 475 1019 747 753 744 739 769 756 733 761 761 756 508 997 775 733 728 761 733 750 758 742 756 758 750 747 506 992 761 739 747 742 739 753 719 747 767 739 750 781 497 1014 764 750 769 742 747 758 739 736 731 750 767 742 489 1025 764 736 750 739 747 744 736 761 747 742 750 747 511 1003 750 767 758 739 742 753 769 747 753 772 758 747 753 753 775 733 750 772 761 750 500 986 772 747 742 744 736 742 728 736 753 725 739 753 747 731 742 739 767 753 753 769 761 761 478 1036 778 744 758 775 769 753 492 1000 781 753 736 764 753 725 739 753 500 994 744 769 750 742 761 744 500 1014 742 767 750 733 744 739 750 750 747 767 753 742 767 750 767 769 747 778 753 739 756 747 758 756 750 767
116 1536 0.0547 494 989 761 739 761 756 728 758 744 719 747 742 747 739 736 769 744 736 761 739 500 1006 736 750 736 722 742 744 750 756 750 778 758 750 775 750 789 769 478 1044 764 742 761 744 767 742 744 767 758 742 756 753 494 1019 742 775 750 719 747 739 753 739 747 767 500 986 750 736 761 747 728 769 739 733 753 744 744 756 739 750 747 744 744 722 744 758 725 736 747 736 731 739 728 750 733 739 761 753 731 731 739 744 731 725 758 728 714 747 725 742 742 739 753 742 725 739 731 731 739 719 742 722 725 733 717 728 747 733 481 994 747 728 722 733 739 719 725 733 728 719 733 719 494 978 733 750 739 722 728 728 744 728 722 761 489 958 753 731 742 733 736 756 492 961 744 728 731 733 719 742 722 728 481 978 736 739 733 728 750 744 725 725 733 744 722 717 744 728 717 747 728 744 750 731 756 744 728 731 483 978 758 719 742 736 739 750 728 744 750 739 736 767 747 725 744 747 756 742 742 753 486 994 739 742 750 736 736 772 744 725 750 750 758 739 503 983 753 725 747 739 761 747 731 775 744 725 753 756 506 989 739 753 744 731 733 731
116 1792 0.0391 753 728 550 936 744 725 744 744 756 733 731 750 733 719 750 719 744 742 733 769 742 728 753 739 497 989 744 753 725 722 756 719 747 756 731 750 497 986 742 742 722 758 719 728 736 731 733 722 725 750 736 736 781 733 731 767 733 750 747 744 753 750 742 747 747 756 733 758 772 739 728 753 736 736 742 731 731 733 725 728 717 731 750 736 761 764 764 761 486 1017 772 731 731 756 742 742 728 750 756 733 750 753 744 744 739 744 761 736 472 1014 756 744 733 747 758 742 764 756 736 747 731 728 736 708 708 731 733 717 483 956 747 722 719 750 717 694 717 706 717 711 711 722 714 717 731 706 736 739 722 744 528 933 725 714 717 728 711 711 733 722 711 725 722 739 725 733 744 731 736 733 717 722 750 717 711 742 731 717 717 728 733 717 722 747 719 714 736 722 733 717 714 722 717 717 719 717 736 747 739 758 761 764 744 739 536 964 714 711 744 736 719 722 733 742 731 731 742 739 719 739 733 750 728 719 761 736 711 725 733 736 742 731 758 739 717 742 517 956 742 719 753 750 719 750 481 1047 758 753 778 747 739 761 742 756 728 728
116 2048 0.0234 744 731 706 733 725 733 728 728 731 717 519 400 1031 728 744 711 711 739 719 708 733 731 733 750 742 756 731 742 736 719 733 514 950 728 747 731 725 731 725 725 731 542 908 731 697 728 719 736 725 725 744 750 731 747 750 736 761 744 747 744 728 736 722 742 733 719 733 742 722 728 731 486 986 725 722 742 728 714 714 719 739 706 714 750 722 711 736 733 731 739 736 764 744 722 739 728 753 711 706 744 725 703 736 728 728 739 486 981 728 700 714 703 717 731 697 708 736 717 700 719 725 728 728 717 739 722 700 714 717 717 725 700 706 719 697 700 697 692 708 711 686 717 700 697 700 697 711 719 692 703 731 706 706 714 711 719 725 717 728 725 717 722 714 728 731 706 703 739 708 703 708 706 728 714 708 736 706 697 714 697 711 708 697 708 722 706 703 714 711 744 728 711 736 731 706 725 719 725 703 703 742 706 689 722 711 706 725 719 728 733 719 722 714 736 739 711 719 739 719 719 717 719 731 717 714 733 728 700 717 711 722 708 711 728 717 706 725 711 694 728 708 706 719 722 686 708 714 739 706 711 722 717 700 714 703 714
118 0 0.0352 836 847 850 844 842 811 822 833 808 800 861 861 844 844 828 842 800 814 828 819 817 814 792 794 808 797 803 822 794 839 833 831 861 842 839 858 714 936 844 844 842 836 842 836 828 814 781 800 775 772 814 800 811 836 842 856 847 853 858 864 861 847 850 842 839 839 817 847 819 839 861 831 839 856 828 842 831 825 817 836 844 817 825 850 844 839 842 825 831 839 839 825 828 844 811 828 814 806 828 831 814 825 814 808 808 811 783 794 800 806 808 800 631 908 853 800 794 797 650 875 814 789 794 778 800 800 797 625 914 633 1006 822 783 792 781 806 656 853 831 797 817 808 800 822 817 831 828 814 819 803 811 814 822 808 800 836 817 803 825 814 789 814 794 783 792 822 792 817 811 822 828 836 844 833 842 850 844 825 847 850 839 853 853 842 856 856 833 842 864 839 839 858 819 836 831 814 831 797 822 819 817 819 817 792 806 633 889 817 822 792 806 814 789 814 808 808 814 822 1428 894 831 819 806 794 833 808 806 828 822 811 844 844 1539 894 864 864 819 831 819 825 686 975 664 1042 892 864 875 850 828 856 836 811 806 833 828 831
118 256 0.0508 836 833 831 842 844 831 831 856 850 839 842 833 839 864 736 922 839 847 817 817 819 817 817 811 819 800 789 803 800 806 811 803 800 811 828 783 794 831 792 828 811 822 853 833 844 828 833 867 867 833 850 856 858 878 881 869 903 889 883 831 867 847 867 822 811 808 797 817 817 800 811 822 819 844 825 597 914 853 808 806 814 619 886 853 797 800 817 653 928 892 1461 911 833 819 842 814 772 875 819 833 811 811 858 822 814 825 819 808 758 794 767 661 853 803 789 789 797 642 908 836 836 811 808 847 806 814 831 817 825 825 828 831 825 836 839 836 822 839 833 800 819 817 814 847 822 828 828 856 839 814 858 828 842 836 819 836 786 806 839 789 819 817 806 833 778 617 964 853 833 811 592 875 653 961 647 936 644 969 833 817 567 886 822 806 800 783 756 778 775 753 744 769 756 753 772 778 750 767 769 739 747 722 739 731 742 733 736 736 731 750 750 739 711 756 733 728 742 750 728 731 758 733 736 653 800 717 731 717 717 706 708 703 711 706 703 686 700 706 689 708 703 689 678 708 706 686 672 686 683 675 681 683 675 675 681 683
118 512 0.0508 683 683 681 664 683 675 675 667 683 667 658 658 692 669 664 661 689 658 669 683 694 669 686 681 692 678 681 669 672 681 681 672 683 689 528 789 717 706 706 694 708 700 692 706 714 692 689 689 525 764 703 689 689 689 700 711 703 717 719 706 736 722 717 714 736 481 717 875 767 731 739 742 747 736 739 733 717 728 722 731 714 714 700 739 714 731 697 736 719 719 739 733 708 697 736 703 717 697 719 689 722 714 731 697 722 717 692 775 722 711 722 475 858 850 739 725 714 744 631 808 547 922 725 719 739 719 711 719 681 761 733 708 717 714 719 592 811 722 717 714 778 681 703 697 525 789 706 719 714 683 697 697 700 689 697 689 686 686 700 689 686 692 503 772 717 692 689 689 700 683 683 700 622 761 706 733 719 722 728 742 728 739 733 742 739 750 750 756 747 750 747 756 750 761 772 767 531 844 792 542 878 761 769 758 778 772 778 783 778 794 789 778 783 483 1075 781 794 769 758 792 781 775 775 794 767 772 781 761 775 758 775 769 772 761 775 769 761 786 756 739 744 764 747 736 756 750 747 761 778 753 767 775 775 789 767 778
118 768 0.0703 778 775 778 553 850 769 772 769 764 742 769 758 756 775 767 750 764 786 739 772 761 761 747 756 764 758 764 756 761 767 761 772 753 764 761 794 753 531 844 794 753 747 758 719 753 758 769 756 769 764 764 792 756 764 769 758 756 789 756 747 775 769 781 733 778 786 767 803 547 853 772 789 772 775 761 783 789 794 797 794 794 792 828 792 542 878 792 797 603 969 819 833 844 828 858 839 861 881 847 878 856 842 883 861 833 867 850 828 844 833 817 833 839 828 817 842 869 864 869 894 886 875 892 881 869 883 853 861 861 822 558 958 847 858 875 861 894 900 878 878 881 881 883 853 872 869 867 881 861 858 878 847 844 853 836 617 1000 831 844 844 572 908 819 550 886 633 914 803 786 767 797 769 772 756 786 758 764 792 761 478 1017 764 736 750 631 817 744 753 742 747 750 739 761 753 739 722 611 831 733 750 750 725 528 844 742 744 725 756 575 853 758 756 744 739 719 747 617 811 733 717 728 711 647 800 739 744 778 744 767 764 753 772 794 794 775 792 808 800 806 789 803 797 786 803 819 786 789 825 597 858 833 822 811 811 819 800
118 1024 0.0586 822 825 825 842 811 825 828 819 828 803 789 622 825 783 758 789 764 769 797 792 783 794 819 792 808 800 794 825 800 817 814 806 839 819 814 828 819 811 1569 897 861 864 811 797 806 789 808 806 792 797 781 789 789 778 756 781 769 617 1222 850 772 792 597 817 781 769 758 753 775 758 750 603 792 775 786 764 1372 844 775 783 767 742 792 758 753 772 781 592 836 836 783 803 789 792 789 789 792 772 797 786 789 797 792 814 803 811 603 1025 894 858 869 828 814 836 800 797 811 789 806 828 811 814 808 819 811 806 781 814 803 814 822 800 806 806 825 806 794 811 775 808 803 794 633 1219 956 853 786 814 803 781 822 786 786 800 806 800 778 808 783 792 808 794 792 792 803 792 792 775 783 800 789 794 792 761 597 833 800 747 786 764 758 786 781 756 783 792 617 1206 839 775 778 758 772 758 639 839 794 572 944 794 772 775 775 769 775 781 814 769 769 792 775 786 808 800 758 633 853 803 797 769 775 764 772 792 786 764 764 672 878 811 800 764 783 794 772 769 781 778 769 792 761 783 778 769 778 503 1072 792 800 781 769 783 794 789 614 875
118 1280 0.0234 867 836 844 822 833 819 842 819 828 836 819 814 831 1553 833 858 811 817 828 800 797 806 808 797 803 803 803 803 806 814 797 783 806 792 764 772 789 769 789 811 783 789 814 808 808 806 803 792 817 597 892 836 814 825 819 786 825 1478 858 842 808 814 836 792 789 808 775 794 808 806 806 825 803 847 831 825 808 825 808 822 819 797 844 817 794 833 803 803 822 817 797 786 794 792 792 806 761 783 781 794 786 792 822 806 819 800 831 819 817 853 825 811 850 833 825 814 786 811 831 822 814 800 819 814 819 583 842 856 792 844 839 817 842 864 828 819 836 814 825 839 797 803 864 839 808 836 825 825 828 819 614 881 833 858 833 814 850 822 836 858 1503 872 858 858 825 842 853 842 839 839 833 839 856 836 833 850 850 839 861 828 828 864 831 817 833 817 819 831 844 819 808 833 819 794 789 825 806 792 811 794 783 797 669 856 789 806 772 778 653 836 786 758 769 758 764 758 772 786 783 817 792 789 817 797 803 789 800 786 803 800 772 636 925 819 806 792 814 814 819 828 825 819 808 850 831 814 833 825 822 842 819 811 836 844 836 844
118 1536 0.0586 833 839 856 839 844 836 831 847 850 803 842 833 808 856 828 800 825 831 811 797 811 792 811 819 786 800 756 819 814 789 800 789 786 572 867 800 789 836 814 806 814 822 806 833 836 822 833 847 833 858 819 850 864 847 869 858 839 878 856 853 861 861 864 881 856 864 872 869 850 833 858 844 842 861 833 819 867 833 822 850 847 833 864 850 814 836 844 803 803 836 797 817 847 808 836 844 831 831 814 839 822 806 842 814 806 831 833 819 811 853 817 833 858 831 825 853 825 839 817 825 850 839 847 853 847 867 864 853 856 867 847 875 858 847 869 878 856 858 875 858 1561 883 853 831 808 814 767 803 672 869 850 833 814 844 856 819 814 850 819 819 850 822 825 822 844 836 811 850 661 994 569 1072 850 872 861 847 850 864 636 1017 933 892 889 889 892 864 861 861 872 872 869 869 881 889 878 628 1031 922 528 1253 875 872 653 1008 917 903 894 894 914 892 881 894 867 856 892 628 1025 944 881 889 906 869 881 869 844 875 858 628 989 850 872 861 614 950 853 842 864 619 953 850 867 850 833 847 833 617 992 853 858 633 969 875 853 639 978 881
118 1792 0.0352 878 858 850 878 847 833 864 850 847 883 867 856 878 872 867 861 861 864 878 889 864 869 900 872 844 864 867 856 856 856 861 856 856 844 853 861 850 872 869 839 847 858 839 839 819 853 839 825 861 847 819 867 511 1133 853 833 825 828 842 833 828 856 856 839 839 864 853 853 872 847 842 861 847 828 864 858 861 881 858 878 886 864 872 856 861 872 853 872 881 844 875 864 847 875 858 844 869 847 833 872 847 847 858 842 842 844 847 847 833 850 858 606 886 867 831 864 850 828 842 858 847 828 842 831 839 836 822 825 831 814 844 814 831 844 556 811 1047 867 869 858 844 850 847 825 842 861 819 836 861 844 847 831 831 822 836 828 811 783 597 881 817 814 831 825 850 869 839 842 883 864 831 856 828 836 858 833 847 869 864 883 864 872 553 1147 708 1017 836 867 856 839 850 847 867 861 864 856 872 875 861 856 853 858 861 864 872 847 869 856 850 844 858 831 833 847 800 822 831 789 642 869 828 794 797 797 650 856 783 786 767 717 747 725 719 722 736 706 706 714 725 686 694 681 692 675 678 681 672 703 636 667 683 675 672 658 686 683
119 512 0.1445 550 1314 547 1308 928 850 881 894 531 1317 939 933 881 892 547 1300 972 911 875 939 881 881 936 875 894 942 906 897 928 897 878 900 903 900 889 883 892 900 878 867 903 900 875 903 897 900 911 894 883 931 892 900 925 883 897 900 875 886 928 908 869 947 931 864 914 897 886 908 883 900 914 881 883 900 900 903 903 903 878 867 864 858 875 892 856 906 556 1292 944 908 875 933 517 1319 969 922 897 908 525 1350 953 914 900 908 517 1322 953 908 858 908 881 533 1331 894 531 1372 911 525 1353 928 522 1311 931 539 1311 928 533 1314 553 1325 889 547 1275 922 547 1283 883 517 1278 542 1297 858 556 1247 861 536 1333 942 522 1333 925 917 892 892 900 917 881 550 1322 900 533 1300 536 1325 889 850 892 886 869 911 522 1308 969 875 864 933 525 1314 975 911 906 922 519 1364 958 892 864 911 917 867 919 919 869 906 903 886 933 886 881 947 869 511 1322 897 531 1314 903 903 897 856 881 914 908 869 928 908 906 914 903 903 947 889 533 1358 917 536 1303 906 533 1328 883 919 886 850 542 1322 906 542 1314 894 894 883 883 522 1297 914 536 1294 942 911 856 878 900 881 878 900
124 0 0.0742 1250 1183 1203 1214 1264 1225 1172 1214 1144 1217 1172 1225 1169 1247 1192 1233 1203 1219 1189 1211 1167 1217 1183 1225 1183 1194 1208 1206 1183 1178 1208 1192 1189 1258 1217 1239 1253 1256 1200 1250 1219 1247 1236 1203 1258 1247 1261 1250 1192 1228 1219 1267 1208 1319 1289 1258 1214 1211 1167 1200 1147 1231 1267 1183 1244 1147 1211 1242 1189 1217 1197 1211 1225 1239 1231 1200 1222 1222 1239 1175 1175 1217 1275 1242 1242 1261 1211 1267 1250 1225 1267 1289 1253 1189 1233 1167 1231 1181 1200 1194 1242 1161 1244 1219 1211 1244 1178 1217 1247 1208 1211 1164 1222 1178 1206 1192 1203 1233 1197 1236 1164 1167 1219 1189 1239 1153 1214 1233 1208 1206 1186 1239 1164 1214 1172 1186 1219 1183 1203 1142 1222 1192 1200 1169 1172 1203 1150 1236 1164 1183 1206 1206 1203 1200 1239 1194 1228 1211 1178 1242 1231 1200 1217 1242 1208 1253 1186 1203 1192 1189 1239 1183 1233 1256 1283 1219 1231 1236 1203 1250 1214 1272 1278 1250 1231 1219 1242 1211 1217 1211 1200 1242 1225 1239 1197 1206 1214 1214 1197 1206 1242 1228 1239 1211 1183 1214 1217 1164 1197 1228 1172 1253 1200 1169 1200 1192 1186 1119 1172 1136 1211 1136 1200 1181 1147 1156 1125 1114 1133 1083 1097 1047 1056 1017 1031 1031 1003 994 981 1000 967 983 936 936 931 939 922 956 925 958 958 875 1064 1003 961 592
124 256 0.1211 1089 1006 964 1008 994 1022 1081 1039 1042 1000 1019 1017 1039 1022 1061 1042 1031 1083 1047 1075 1061 1072 1111 1083 1175 1103 1083 1072 1036 1083 1047 1075 1083 1072 1064 1039 1053 1086 1103 1081 1100 1031 1069 1056 1075 1075 1036 1083 1061 1056 1081 1061 1050 1053 1050 1064 1053 1064 1117 1064 1125 1047 1111 1075 1139 1089 1158 1111 1111 1133 1114 1122 1069 1097 1103 1103 1097 1064 1036 1111 1111 1122 1106 1097 1117 1072 1144 1094 1161 1122 1194 1133 1150 1106 1186 1125 1175 1103 1142 1081 1128 1078 1122 1100 1125 1192 1122 1117 1100 1106 1058 1064 1078 1094 1064 1103 1075 1128 1100 1142 1136 1103 1094 1144 1128 1136 1106 1108 1133 961 1300 1167 1161 1158 1144 1136 1128 1108 1147 1094 1169 1117 1178 1192 1183 1172 1194 1117 1183 1131 1219 1119 1186 1131 1167 1117 1181 1122 1144 1111 1136 1097 1103 1094 1094 1108 1061 1100 1056 1081 1072 1117 1122 1158 1172 1136 1153 1158 1183 1200 1178 1150 1214 1158 1228 1189 1217 1186 1228 1200 1225 1189 1192 1156 1156 1158 1217 1161 1250 1192 1139 1189 1117 1122 1042 1083 1183 1092 1144 1100 1106 1075 983 1086 1036 1017 1061 1011 1050 1031 1006 1064 1053 1008 1069 1056 969 1008 978 1022 1081 1100 1089 1133 1103 1114 1128 1119 1142 1131 1136 1147 1131 1144 1114 1108 1108 1125 1128 1108 1119 1089 1153 1106 1147 1083
124 512 0.0312 1111 1108 1097 1092 1058 1103 1133 1103 1117 1108 1047 1131 1064 1147 1067 1094 1106 1083 1100 1078 1069 722 1394 1086 1083 764 1303 1103 1136 1069 1075 1058 1103 1078 1122 1072 1094 1094 1117 1131 1108 1103 1092 1147 1144 1111 1119 1128 1081 1117 1053 1100 1092 1111 1103 1067 1086 1069 1114 1094 1111 1053 1131 1069 1144 1086 1111 1114 1122 1122 1114 1114 1153 1139 1144 1122 1161 1161 1167 1156 1139 1203 1194 1192 1136 1144 1167 1094 1119 1033 1097 1078 1072 1150 1053 1117 1111 1106 1133 1044 1106 1064 1086 1100 1058 1089 1114 1144 1089 1111 1058 1097 1078 1117 1111 1133 1111 1175 1156 1153 1122 1181 1100 1147 1089 1122 1136 1114 1139 1083 1108 1108 1119 1122 1125 1111 1164 1081 1156 1072 1117 1111 1106 1139 1128 1125 1131 1136 1133 1144 1092 1172 1119 1175 1106 1125 1136 1161 1181 1125 1139 1142 1139 1131 1125 1128 1139 1125 1147 1097 1125 1103 1128 1089 1092 1086 1161 1139 1144 1119 1128 1164 1136 1156 1108 1164 1128 1164 1111 1225 1200 1147 1139 1136 1108 1136 1114 1175 1142 1103 1192 1142 1197 1125 1111 1117 1167 1133 1172 1142 700 1581 1150 1156 1189 1097 1158 1094 1136 1144 1128 1206 1189 1186 1161 1169 1133 1139 1078 1117 1089 1100 1106 1089 1167 1103 1186 1108 1136 1150 1150 1161 1108 1131 1158 1181 1169 1128 1139 1125 1178 1122 1164 1144 1175 1172
124 768 0.0469 1169 1125 1172 1167 1183 1175 1122 1211 1153 1194 1128 1194 1128 1192 1133 1164 1153 1156 1208 1128 1142 1203 1167 1172 1147 1142 1211 1164 1172 1164 1189 1139 1186 1108 1131 1150 1108 1147 1097 1100 1072 1131 1119 1106 1064 1075 1114 1194 1125 1175 1133 1156 1147 1150 1131 1014 1253 1222 1172 1233 1197 1181 1167 1158 1144 1153 1172 1114 1158 1153 1164 1158 1169 1172 1192 1106 1203 1128 1131 1158 1194 1133 1161 1136 1167 1169 1172 1139 1203 1147 1228 1214 1194 1186 1164 1178 1147 1128 1161 1153 1172 1181 1161 1164 1181 1119 711 1494 1139 1225 1144 1169 1169 1144 1158 1161 1147 1144 1097 1142 1108 1136 1161 1169 1158 1186 1161 1192 1158 1172 1150 1200 1172 1214 1150 1175 1186 1117 1203 1156 1119 1203 1208 1164 1133 1178 753 1539 1108 792 1519 1108 883 1472 1153 681 1578 1192 1128 1131 1031 981 1006 961 1003 989 1553 944 1372 1097 1156 1114 1247 1167 1156 1144 1178 1164 1158 1114 1194 1153 1211 1158 1306 1231 1228 1147 1169 1133 1164 1183 1183 1153 1194 1150 1161 1119 1150 1128 1181 1133 1131 1178 1117 1183 1108 1203 1197 1150 1206 1172 1189 1203 1217 1200 1186 1178 1175 1231 1153 1164 1175 1172 1200 1183 1211 1219 1217 1181 1244 1239 1178 1231 1189 1142 1189 1136 1225 1144 1178 1153 1197 1142 1186 1144 1153 1128 1142 1100 1150 1108 1150 1122 1106 1136
202 512 0.1016 1111 1064 1031 1000 1025 1039 1039 1014 961 933 922 958 967 969 939 897 886 922 961 989 958 917 914 928 961 933 922 908 897 661 1103 936 942 939 892 858 878 925 944 950 911 633 1133 947 942 953 942 664 1144 936 942 967 969 697 1172 903 917 950 975 736 1144 878 903 967 956 931 911 869 872 903 922 675 1194 925 872 861 906 931 944 961 892 894 908 972 967 939 919 892 900 653 1233 944 919 900 864 867 900 922 897 889 847 856 894 928 950 908 867 608 1108 925 944 919 883 883 883 897 922 969 936 942 928 897 958 997 1067 942 942 950 1033 1044 1047 1017 1008 1006 1069 1064 1081 1022 1042 1011 1075 1117 1092 1033 1028 1058 1122 1125 1069 1050 1044 1111 1097 1100 1058 1058 1064 1089 1144 1069 1022 1019 1064 1117 494 397 572 1297 1011 1053 1053 1042 1061 469 1206 1039 492 1292 1044 475 1189 1003 1036 703 1417 1008 1011 1075 508 1314 1100 475 1258 1069 486 808 1594 1072 1047 469 1275 1156 1133 483 1244 1092 1125 1131 1108 489 1278 1075 1128 508 1325 1103 475 1242 1100 1108 1114 1033 1017 1044 1136 1122 1083 1047 1069 1114 1128 497 1322 1086 1067 500 1358 1114 1094 1025 1042 1122 1114 1086 1042 1022 1089 1136 1097 1081 1050 1050 1086 1094 1114 1069
205 256 0.0820 658 694 667 667 647 656 653 672 672 647 650 667 686 667 664 664 664 667 669 681 653 656 653 681 656 650 642 653 642 664 672 656 647 653 683 667 661 658 653 647 664 681 650 644 647 669 656 661 650 658 656 664 675 653 658 664 689 661 658 658 669 672 678 686 672 658 675 700 672 667 667 675 669 675 681 675 658 678 689 678 658 675 681 686 692 667 669 669 706 678 678 661 658 658 669 689 664 658 675 689 669 664 667 678 661 675 675 681 650 669 678 667 644 467 853 667 664 664 656 642 667 675 656 636 644 669 669 667 658 653 656 678 678 653 642 647 656 656 661 642 656 642 678 667 661 644 647 653 656 661 650 642 628 647 664 639 631 631 650 625 650 642 636 622 636 653 631 625 619 617 611 622 619 611 608 603 622 633 606 603 619 631 614 633 644 625 631 625 650 639 639 375 869 506 347 319 297 347 353 333 314 353 594 647 669 297 342 300 303 297 264 292 311 294 483 611 647 617 625 628 656 636 642 631 647 636 658 661 647 642 336 958 658 642 628 639 639 647 647 642 636 622 647 664 644 633 644 661 647 658 653 650 633 661 661 644
205 2048 0.1328 722 369 1047 747 719 703 714 722 719 733 714 717 711 747 717 708 717 722 725 731 719 714 711 747 731 714 708 719 722 733 714 711 706 742 714 719 706 725 722 725 722 714 717 744 722 717 731 736 739 744 739 742 747 758 742 736 742 744 747 764 747 733 753 753 736 722 739 733 739 744 736 725 750 742 725 725 731 719 736 719 719 706 739 714 719 706 492 939 403 1050 725 706 733 714 714 697 714 703 725 719 717 719 744 731 731 733 736 736 753 731 725 728 753 731 706 722 719 733 742 728 714 744 758 389 1089 733 739 733 764 394 939 536 375 311 269 269 294 314 286 297 269 481 697 656 711 664 689 642 761 792 717 781 722 511 289 792 533 844 658 531 314 700 717 731 736 744 739 739 728 369 1122 728 717 736 728 736 722 719 722 756 733 708 722 725 733 725 711 711 711 744 719 708 722 733 736 747 725 739 739 764 739 714 728 725 733 744 719 714 739 750 736 706 725 739 736 753 717 717 739 744 731 711 739 725 756 744 750 722 758 764 742 747 742 744 761 747 742 739 772 753 733 747 742 744 772 739 736 747 742 733 717 728 714 731 722 722
209 0 0.0234 656 650 639 622 619 603 611 628 658 667 636 636 639 625 636 628 600 644 656 664 672 658 647 617 628 606 639 681 678 669 653 639 644 658 617 642 650 667 658 631 656 664 644 656 628 678 711 703 672 653 658 656 628 636 689 669 669 644 647 650 628 628 583 631 669 656 633 661 633 628 606 611 653 653 658 639 633 631 611 628 625 486 711 653 650 650 631 622 617 600 597 614 650 681 686 639 636 614 628 631 586 633 633 586 689 622 639 625 603 508 667 644 664 656 633 611 625 617 597 581 619 647 647 631 622 636 628 603 583 597 622 650 650 642 644 636 633 619 619 675 681 675 667 644 647 631 556 694 608 644 653 669 653 628 622 608 469 658 650 656 664 625 642 617 617 631 606 594 617 644 653 617 625 633 608 608 575 619 653 653 647 619 622 608 486 717 617 667 678 631 681 653 653 622 617 586 622 636 653 650 636 617 611 611 619 608 636 667 639 639 636 636 631 631 594 633 636 656 669 633 636 614 625 622 589 661 681 661 653 628 631 625 497 667 611 622 628 631 625 633 633 608 611 581 639 667 642 467 667 636 614 600 589 622 639 647
209 256 0.0273 644 636 628 639 617 611 586 622 656 658 661 653 625 622 619 639 639 667 681 669 656 661 661 656 650 606 650 656 661 675 636 631 608 617 603 631 667 678 639 631 636 639 636 614 606 631 644 525 722 636 644 608 600 578 631 681 675 669 633 650 642 619 636 625 644 664 644 644 644 633 636 606 583 647 656 667 675 642 653 617 625 636 611 653 642 653 647 619 622 617 586 575 597 631 639 628 600 600 589 589 597 572 617 653 631 628 594 606 608 592 586 553 614 633 617 633 614 619 589 558 617 589 642 639 644 603 603 614 594 606 606 592 625 625 628 636 619 597 594 589 564 589 600 625 614 589 581 575 572 569 581 544 586 419 667 603 564 581 567 575 556 533 553 478 675 606 567 567 456 619 544 536 533 561 589 569 578 547 550 561 564 539 539 503 564 575 572 567 558 569 542 544 525 528 525 567 558 567 547 544 533 547 522 536 531 517 544 536 572 569 561 558 542 533 522 533 517 544 567 569 581 536 547 533 531 397 569 531 569 556 556 542 567 533 550 531 533 522 497 389 583 592 592 544 533 531 533 531 522 508 542 569 419 578 569 542
209 512 0.1406 550 550 531 536 508 517 547 569 558 572 550 561 547 544 528 531 564 578 583 572 581 556 569 553 469 644 539 564 578 586 592 594 569 572 533 544 558 539 583 578 597 569 553 544 544 400 658 533 536 544 586 575 564 558 439 653 544 542 517 400 603 597 569 569 414 575 558 550 528 539 536 575 567 483 619 556 564 553 375 633 531 514 564 561 589 581 561 436 628 539 533 531 550 561 581 547 564 539 547 444 622 550 522 542 558 575 583 553 578 567 533 542 442 597 556 578 583 572 567 547 539 542 556 533 411 619 561 567 569 411 594 567 561 531 531 497 539 544 594 553 564 519 461 597 539 536 519 433 653 589 567 561 561 583 547 511 572 525 558 581 575 592 589 561 561 553 558 567 561 592 625 597 606 600 592 436 714 611 567 603 603 628 633 592 603 453 675 592 553 617 625 639 422 369 367 364 378 372 372 372 367 367 361 367 389 392 394 403 381 383 369 611 608 578 561 544 600 633 442 364 603 611 603 597 611 611 611 633 667 669 656 658 633 561 675 592 650 661 661 669 619 625 622 633 625 625 656 631 694 647 653 656 653 625 614 650
209 1536 0.0469 611 564 642 603 639 633 494 728 614 625 511 689 592 586 622 647 631 625 631 603 603 594 589 586 669 647 617 608 544 647 608 586 567 594 619 606 611 611 586 589 564 583 567 592 631 644 639 619 614 606 636 631 592 644 517 761 664 653 633 628 614 597 617 500 792 656 628 611 617 617 597 592 597 681 636 633 619 639 625 625 606 603 667 658 661 639 633 625 594 483 678 647 656 642 642 622 622 617 619 617 581 628 647 664 667 628 594 661 619 608 642 517 822 681 661 639 653 667 625 642 664 667 658 564 681 639 617 633 411 761 717 672 514 700 650 647 617 603 658 667 686 664 658 678 550 722 622 642 669 672 675 672 650 647 628 625 628 650 661 639 636 631 603 533 694 597 644 658 683 689 642 661 636 644 631 633 717 708 681 575 725 672 675 619 492 750 697 664 642 650 639 614 611 603 656 672 650 653 625 625 633 633 608 658 664 675 669 669 669 642 614 542 689 653 675 661 553 706 631 625 633 575 675 658 658 642 628 642 617 619 583 611 631 661 664 628 622 614 608 614 594 644 664 636 636 606 622 617 594 603 569 622 644 636 644 619
209 1792 0.0430 617 617 594 608 644 661 661 633 628 625 619 625 556 653 644 650 642 631 653 636 628 606 592 636 647 653 656 611 617 592 614 619 581 622 628 639 639 608 633 625 464 669 603 639 661 661 642 622 619 611 614 597 636 669 653 647 625 636 631 603 608 583 622 644 633 650 631 614 589 619 592 700 681 667 631 619 644 619 619 614 594 558 686 644 644 617 444 708 611 592 594 628 656 653 622 622 606 611 617 586 625 625 653 658 619 644 636 631 617 592 647 675 664 650 617 497 719 622 606 558 714 658 653 633 564 725 625 611 600 642 653 647 639 575 664 608 608 600 633 642 658 642 622 642 633 631 633 564 686 647 664 669 625 631 619 619 600 631 669 678 647 631 633 639 483 708 625 633 642 658 642 631 631 608 461 689 642 669 656 647 611 633 625 606 622 622 644 661 658 658 656 633 639 608 600 644 653 672 661 631 639 608 619 467 708 656 647 658 650 625 644 594 664 597 631 492 758 692 642 628 619 614 617 617 608 708 658 642 536 722 647 614 592 633 642 650 650 631 644 608 619 603 603 661 656 664 483 694 656 617 628 611 639 656 636 664
209 2048 0.0312 650 633 622 572 650 608 642 594 731 647 650 628 628 631 608 650 644 619 703 625 647 636 639 611 617 658 517 778 647 628 617 611 600 606 639 494 758 661 622 633 639 614 606 589 636 664 639 622 656 606 606 592 592 644 633 656 631 622 636 611 531 694 594 639 642 642 650 628 622 597 606 586 608 642 653 647 625 617 611 625 619 586 533 714 639 644 625 631 625 608 608 592 642 669 650 642 614 625 611 628 594 647 647 647 636 636 650 608 614 597 586 644 633 647 642 431 650 617 594 603 600 625 636 633 633 631 625 625 633 592 639 647 681 544 742 661 619 617 628 600 656 672 597 686 617 625 631 614 606 631 664 681 647 489 772 636 628 608 617 667 658 664 622 625 639 617 631 614 653 678 653 664 667 550 700 622 608 647 647 675 678 636 642 625 625 636 611 628 661 647 647 625 542 706 633 603 475 764 689 669 625 633 622 619 608 611 653 658 642 633 628 633 631 619 597 631 664 669 667 644 661 642 628 594 656 678 661 664 633 639 628 622 642 622 650 669 667 667 658 644 622 622 606 639 675 669 669 642 628 572 717 619 647 661 667 664
209 2304 0.0586 631 661 644 614 625 600 650 683 672 647 622 633 642 611 603 664 661 653 642 631 644 622 619 589 611 650 650 661 650 622 631 611 619 608 644 653 642 647 631 503 719 631 603 606 486 728 683 658 633 631 625 617 597 653 664 667 661 492 717 658 650 611 478 708 672 664 481 717 669 625 617 600 656 681 658 664 625 619 628 622 608 633 650 669 644 636 644 617 625 606 597 653 656 675 672 633 633 619 633 619 633 667 650 656 642 625 636 633 619 600 639 669 683 658 653 628 636 639 600 603 731 658 658 622 636 639 619 606 617 642 672 650 647 644 625 625 603 600 661 658 661 633 625 628 606 633 597 550 711 656 656 639 647 628 611 611 597 644 667 658 656 622 622 617 569 658 633 653 661 650 625 644 636 636 611 597 653 678 669 653 625 619 594 628 597 631 661 650 642 611 636 639 614 617 600 633 658 661 647 639 619 625 619 608 664 667 667 653 544 717 642 622 628 453 758 675 678 658 633 628 619 614 600 653 667 661 644 633 636 497 711 628 639 658 667 669 653 653 653 633 617 603 678 689 664 653 522 736 639 639 417 600 478 422 414 411
209 2560 0.0586 411 428 603 808 647 608 600 650 647 644 644 617 619 597 622 614 639 542 753 669 650 639 642 644 611 500 742 675 678 644 639 614 625 586 628 658 681 661 511 722 644 631 542 672 625 658 675 664 661 653 642 647 619 619 686 675 672 633 639 650 500 722 625 644 469 733 681 647 642 633 617 614 614 606 717 664 650 644 622 619 644 614 650 650 661 661 625 653 647 622 592 631 656 628 697 633 622 622 625 617 614 653 503 783 661 636 650 636 625 586 647 553 725 656 628 458 625 614 592 581 633 631 644 628 597 617 597 600 600 575 625 622 567 700 625 611 589 492 672 586 639 647 636 622 603 603 603 606 575 606 619 631 647 617 628 619 550 653 572 631 661 572 717 619 628 614 594 608 597 631 631 631 628 611 558 664 608 589 578 586 675 642 633 600 606 583 597 592 608 636 628 653 622 614 617 594 603 547 594 600 617 619 592 594 569 567 572 547 583 592 525 672 606 567 581 586 578 581 561 614 622 631 628 439 683 614 606 583 575 619 642 628 533 647 603 594 431 686 600 608 636 608 631 625 511 686 597 608 589 622 656 639 628 600 603 589
213 256 0.0781 531 542 547 542 556 553 542 544 539 542 542 528 561 547 556 525 550 528 528 558 556 539 514 564 531 544 542 544 536 567 533 539 533 539 553 553 492 594 525 533 550 522 553 547 561 522 544 539 539 553 472 642 550 528 550 539 542 550 550 553 533 547 536 539 547 564 489 608 528 539 547 533 536 564 556 542 542 531 550 553 556 542 556 519 539 528 536 542 547 550 547 556 533 533 558 569 542 544 533 558 542 542 539 561 547 550 536 536 453 639 558 542 561 536 536 539 553 539 558 558 558 536 553 544 542 561 553 556 528 531 536 567 531 547 553 547 531 553 528 547 572 547 539 550 550 531 550 542 550 544 550 536 542 533 544 544 561 514 569 531 544 556 550 564 547 556 547 539 525 556 553 553 544 547 525 542 553 528 558 556 550 533 553 536 547 567 556 539 556 392 647 581 539 547 536 556 531 533 525 547 556 558 539 553 533 547 561 522 556 556 569 531 547 550 544 539 547 542 469 636 528 547 544 564 542 553 533 553 536 542 547 547 542 550 519 539 500 589 539 533 569 528 536 539 544 553 556 542 558 531 542 558 492 592 556 556
213 512 0.0742 558 544 531 539 556 556 536 550 489 592 550 542 561 544 564 542 561 522 544 556 583 536 550 533 553 536 533 556 503 608 492 594 553 536 544 567 547 553 528 550 542 542 558 542 556 544 547 525 531 561 561 533 558 525 544 536 497 600 506 619 550 547 553 533 547 564 539 544 533 533 528 542 556 547 550 553 556 533 531 561 561 550 553 536 533 536 467 628 553 564 544 533 539 539 544 556 542 561 531 539 536 564 458 650 556 561 539 539 544 556 553 550 561 528 539 417 664 539 556 567 547 539 547 536 456 664 561 544 539 542 553 547 542 561 561 539 533 550 531 547 572 553 547 531 547 556 547 394 678 575 542 542 544 531 556 569 547 539 528 550 531 550 547 547 558 550 536 544 539 569 553 542 436 653 556 539 556 536 417 675 547 542 536 542 564 553 544 547 536 542 533 558 539 550 569 542 539 536 544 569 556 539 561 531 542 542 556 536 556 561 539 550 556 536 550 456 664 556 542 542 547 547 547 544 550 553 547 525 539 550 581 536 550 522 578 536 547 553 561 544 542 542 558 531 547 567 544 567 519 533 547 547 536 544 564 539
213 768 0.1367 544 547 547 550 564 556 547 528 550 550 539 533 556 556 539 539 556 533 544 567 558 542 539 556 533 547 547 561 553 547 550 544 519 544 561 558 536 453 617 553 547 525 550 556 500 603 542 544 547 553 553 550 536 531 539 547 525 556 553 550 531 553 544 533 556 567 553 542 536 561 550 531 569 544 550 558 542 525 544 583 544 553 522 564 486 600 550 553 553 567 544 533 533 542 581 561 547 536 547 531 514 589 553 553 550 558 539 522 564 581 556 547 544 547 528 569 544 553 481 636 539 533 544 569 556 553 556 531 550 533 519 589 461 664 506 600 539 533 558 569 550 536 531 542 547 536 542 553 483 619 544 544 544 556 564 542 569 528 533 547 506 600 550 556 533 542 531 550 542 564 500 594 467 614 547 539 542 558 569 542 536 547 536 553 578 528 550 528 544 533 536 558 550 550 536 542 556 533 550 578 550 575 525 542 547 550 539 533 558 553 539 528 542 564 561 531 547 539 547 536 556 539 553 572 547 547 544 553 556 553 544 553 542 539 536 561 533 550 475 644 550 536 550 550 567 467 639 533 544 550 542 531 514 608 539 533
213 1024 0.0664 550 544 542 561 547 558 533 539 558 561 539 553 475 633 483 608 558 553 558 536 567 525 539 458 639 536 553 567 553 542 536 556 550 561 550 567 519 544 544 550 539 547 564 542 539 536 547 553 561 553 564 531 544 544 553 558 478 631 547 558 525 539 561 569 531 544 533 561 542 536 556 569 564 536 553 553 547 550 556 556 564 539 525 547 542 567 550 561 536 569 525 550 572 558 536 514 597 539 567 522 561 561 547 533 553 528 547 561 558 539 550 550 531 550 536 578 542 558 542 511 594 489 622 469 661 536 533 539 572 519 553 553 575 528 539 494 611 575 553 558 431 656 539 564 544 556 556 564 536 542 544 514 614 553 419 653 556 536 572 544 550 564 564 464 614 556 558 564 550 558 528 550 539 564 539 550 569 556 547 539 561 558 558 550 556 542 567 550 550 544 578 561 544 547 547 544 553 569 553 547 531 547 564 547 550 558 575 544 547 539 564 558 561 544 564 528 542 564 542 556 556 572 536 547 547 550 558 572 556 550 533 556 556 536 569 547 561 536 558 531 547 578 558 547 556 544 536 556 544 583 550 553 550 564 533 550
213 1280 0.0898 578 561 544 533 553 536 556 544 553 550 556 550 539 544 575 569 550 558 542 547 539 558 542 556 572 536 547 547 547 547 567 564 550 533 561 544 553 561 553 581 553 553 544 544 558 578 533 550 544 536 556 544 528 583 581 550 547 553 553 561 575 544 553 542 542 564 542 572 539 567 539 544 539 550 586 556 547 556 567 550 558 550 553 561 567 542 542 544 558 561 556 564 533 550 547 547 544 569 569 544 556 550 539 569 575 550 561 539 550 539 558 550 544 567 553 553 536 547 575 569 542 572 539 553 569 536 561 569 564 536 564 533 547 564 564 544 478 631 539 558 553 561 550 572 569 547 533 553 581 564 533 553 456 639 550 533 575 547 558 533 564 536 550 567 567 561 547 536 556 572 539 556 464 664 536 547 544 558 561 542 561 542 542 539 561 528 556 569 514 600 544 550 547 561 553 572 531 536 450 639 542 553 575 536 544 550 547 547 569 561 561 522 550 550 544 539 553 567 500 619 528 550 581 553 539 550 547 561 542 544 564 575 564 544 553 547 569 553 567 544 569 528 531 575 550 553 556 581 564 533 536 572 586 556 544 550
213 1536 0.0781 558 539 556 550 575 556 542 561 556 544 556 583 419 672 533 569 564 544 561 558 583 544 550 550 558 556 569 558 511 581 544 578 539 572 544 575 553 547 536 558 589 572 550 558 558 536 558 553 561 550 558 547 544 531 567 578 558 550 528 553 492 619 564 572 558 553 567 550 539 561 569 544 556 536 561 564 392 356 869 594 539 556 542 561 547 583 542 550 533 561 544 539 561 536 556 547 544 492 597 578 567 539 556 550 547 553 553 556 503 614 558 544 539 561 556 558 539 575 531 525 581 550 564 547 589 539 556 556 550 569 578 553 547 553 561 558 542 569 553 572 542 550 550 567 450 667 522 600 561 392 675 572 575 561 550 572 533 544 572 564 558 567 522 556 569 550 553 556 594 544 556 544 569 567 569 547 547 553 553 567 528 567 575 550 442 661 556 553 575 572 558 547 569 542 564 558 553 569 567 547 536 556 561 572 550 561 528 544 569 539 556 569 578 544 561 547 550 567 575 553 556 539 550 556 539 569 567 553 536 547 539 542 581 581 553 544 547 550 561 558 564 556 556 544 542 531 542 575 547 550 533 558 533 547 544 567
213 1792 0.1172 564 544 561 544 536 558 569 547 553 533 542 536 553 544 558 569 550 558 528 542 569 583 539 564 533 544 533 536 553 553 558 422 650 531 533 544 572 553 547 528 533 544 558 539 550 569 564 547 539 556 567 572 547 564 542 544 550 561 553 564 572 564 553 544 569 586 569 550 575 547 547 564 569 569 547 575 556 550 542 564 589 558 556 561 553 556 569 564 561 575 575 556 542 558 586 572 547 583 536 550 564 561 561 561 583 547 558 550 581 578 531 597 508 608 494 625 458 667 564 544 556 553 533 569 578 550 475 519 625 628 500 608 578 556 536 564 464 653 550 564 500 478 644 544 583 531 561 564 567 572 553 539 486 656 564 564 547 542 558 561 531 561 581 544 547 550 558 558 572 561 550 544 564 394 367 883 583 567 558 550 550 558 547 569 561 564 522 556 572 550 556 564 578 497 597 569 553 569 575 561 542 556 556 550 544 578 553 558 561 553 544 514 642 556 569 547 558 544 567 561 547 575 553 553 536 556 575 556 544 569 550 547 556 553 561 558 586 553 558 550 567 511 619 481 633 547 553 561 542 572 569 556 556 561 536 469
213 2048 0.0352 672 558 558 564 547 553 561 564 569 561 556 572 531 558 567 567 544 581 533 553 572 542 567 561 586 556 550 547 569 578 564 561 556 492 617 569 544 572 556 564 567 542 542 575 589 544 567 564 558 544 553 583 553 589 544 553 547 564 569 522 606 567 531 556 572 417 686 581 561 550 556 550 558 575 567 561 531 558 553 547 550 569 569 547 567 542 542 572 583 550 567 556 542 517 608 564 561 578 533 567 506 589 572 539 600 542 544 553 583 536 564 583 569 553 544 464 672 572 564 567 531 553 561 558 558 564 581 542 561 550 581 567 578 567 578 539 542 583 542 564 564 583 542 550 553 572 572 567 575 542 553 561 558 556 572 594 544 547 564 569 564 578 561 561 531 561 569 542 575 564 564 550 561 567 561 581 572 586 536 564 569 567 544 567 589 544 550 558 569 564 572 567 575 542 558 575 564 569 572 583 544 572 556 572 558 569 572 561 536 547 589 553 561 572 581 561 544 561 589 594 550 561 556 569 556 547 575 583 558 547 575 567 561 561 578 578 556 556 583 564 547 578 592 575 553 544 572 581 578 547 569 567 561 558 556 589
213 2304 0.0742 564 572 544 586 564 561 594 572 556 550 553 578 569 550 558 589 567 561 547 575 581 572 556 589 561 556 567 572 572 564 586 564 556 547 589 586 542 575 564 564 550 564 583 561 575 556 592 556 553 567 600 575 553 564 542 575 561 556 572 569 578 542 550 581 606 556 556 556 589 569 542 575 592 572 550 572 558 558 561 578 581 550 531 589 569 558 572 594 561 556 542 583 583 583 553 586 558 547 561 553 592 578 556 564 567 553 561 592 578 567 547 569 569 553 572 547 619 544 575 556 533 572 589 575 550 542 553 536 611 564 567 597 561 553 547 581 586 544 564 556 572 533 553 469 681 569 553 583 539 550 567 600 564 556 547 569 556 547 583 578 531 567 583 542 561 572 581 553 547 572 564 556 553 594 583 547 567 561 550 564 589 569 553 539 553 581 542 564 567 475 656 558 547 583 572 575 567 567 542 558 572 558 564 581 567 539 542 575 561 581 567 478 636 508 622 572 575 558 567 569 564 544 558 600 572 553 533 569 567 547 575 503 644 558 553 569 561 572 575 575 561 539 567 578 536 578 572 583 536 558 553 583 578 553 569 517
213 2560 0.0430 600 556 572 586 544 569 564 583 533 553 583 589 542 558 542 575 578 531 567 581 578 547 572 453 681 567 567 589 528 561 567 564 558 564 583 544 564 556 553 567 589 569 544 550 397 700 558 592 589 556 550 564 558 561 581 514 622 542 561 572 550 558 581 572 544 572 575 558 567 594 556 564 556 578 561 547 578 411 694 569 572 564 553 592 578 558 544 581 575 542 567 581 594 547 572 569 547 567 581 578 561 536 547 569 581 583 556 572 572 581 547 564 597 583 567 536 578 578 544 558 578 594 533 564 561 581 567 567 569 508 639 381 378 897 597 564 564 581 542 539 575 592 553 558 550 564 558 553 578 578 575 558 578 547 578 597 561 564 572 556 547 575 556 567 575 561 572 539 564 581 578 578 567 556 572 575 544 578 589 567 561 564 558 561 586 575 561 544 572 581 542 575 592 589 550 572 575 567 575 583 583 553 544 547 586 572 556 572 572 581 544 550 572 608 575 558 542 564 600 564 567 567 583 578 553 544 583 594 550 567 556 581 550 569 578 567 594 572 558 544 575 603 569 567 558 569 558 558 556 581 592 550 558 556 583 589
213 2816 0.1133 578 575 578 544 556 567 575 581 386 378 656 669 547 569 592 583 564 547 547 561 589 561 561 569 583 556 564 550 589 600 556 556 558 564 561 556 581 561 578 567 578 544 561 594 592 558 556 561 578 561 561 592 531 589 567 575 558 558 581 569 586 550 553 569 575 594 556 578 547 572 572 572 575 556 586 569 553 550 569 589 567 525 597 528 633 556 575 597 583 544 547 572 589 544 567 575 581 572 536 556 603 594 544 575 558 556 581 553 569 581 586 542 556 467 422 850 558 561 572 567 544 558 597 567 567 511 633 550 561 594 583 553 547 553 572 581 536 561 531 633 575 536 558 592 583 472 642 567 547 558 564 586 461 669 569 547 550 578 575 556 567 561 542 558 586 544 558 583 575 556 550 572 583 578 550 564 569 569 556 544 592 572 558 419 669 578 553 600 572 561 556 578 558 561 564 586 586 553 569 569 542 572 586 572 558 483 603 581 569 578 553 569 564 586 561 567 592 578 567 503 628 503 611 592 558 572 556 586 542 572 583 564 569 525 625 550 581 500 633 572 572 581 536 553 586 589 542 564 556 581 553 497 633 597 578 544
214 0 0.1016 800 872 875 875 881 828 639 956 772 878 450 1275 772 719 731 758 764 775 881 894 747 722 728 781 817 819 803 833 767 714 747 781 825 861 825 767 772 742 753 783 814 842 825 561 939 747 786 786 808 825 797 775 750 736 817 856 844 825 769 750 731 747 764 847 847 814 783 756 792 806 811 825 853 764 722 725 747 819 850 828 783 764 717 700 744 775 850 1011 786 731 758 742 750 786 811 844 783 714 433 1061 792 614 992 772 422 1022 678 464 994 800 542 994 694 661 653 683 708 722 583 1164 725 725 728 778 786 806 786 817 778 733 719 731 794 803 783 739 742 692 692 711 747 794 861 422 1156 747 775 783 786 853 428 1325 761 750 833 825 850 864 431 1211 750 764 383 1317 861 847 406 1119 753 769 783 811 878 781 706 681 731 753 817 833 822 819 394 1103 728 733 803 800 550 986 719 722 700 747 783 811 836 797 361 1211 797 572 1150 831 822 442 411 1261 811 817 792 797 750 736 739 481 1128 856 881 658 983 747 564 1033 786 864 872 792 764 756 814 853 872 906 878 792 764 783 411 1328 847 803 783 733 367 1106 775 797 800 744 694 694 456 958 717 750
214 256 0.1328 753 736 483 867 650 703 692 722 706 731 694 689 656 664 717 508 1164 808 814 767 747 753 628 928 861 833 489 1011 706 772 778 411 1200 833 761 711 717 408 1144 842 817 769 772 744 747 769 822 875 900 817 386 478 1414 819 822 811 817 775 736 731 803 808 808 792 769 719 717 697 392 1056 794 417 1081 692 364 1017 733 411 1161 856 828 728 744 750 819 864 858 433 1300 783 792 475 1264 897 869 806 397 1200 786 822 831 894 822 772 789 822 831 844 853 864 786 714 742 811 817 842 850 789 797 781 794 494 528 1544 842 503 1033 792 753 769 811 825 758 692 725 750 817 861 842 878 825 767 394 1319 1486 1361 792 794 853 892 403 1319 839 797 383 1131 783 844 817 792 789 767 753 775 483 1167 861 839 742 753 772 800 825 825 875 839 758 381 483 339 1506 847 822 783 744 458 1000 769 567 1064 797 489 975 714 733 717 769 764 528 1075 697 358 1156 794 817 806 808 786 783 775 792 922 928 878 833 783 394 1333 869 967 897 778 750 736 767 781 797 797 822 731 692 725 756 839 867 853 833 814 392 1222 856 911 572 1214 825 806 822 844 869 911 889 786 381 1297 872 878
214 512 0.1094 864 833 803 758 786 553 1231 872 825 433 1117 794 783 806 897 869 803 789 806 856 878 844 892 825 406 1136 797 817 853 822 761 733 706 694 467 936 722 767 778 719 689 742 783 814 850 867 861 414 1203 822 889 506 1239 836 778 739 731 747 564 1194 883 844 792 794 842 436 1267 908 817 722 733 453 1136 867 819 828 764 739 458 1064 806 831 803 742 717 697 717 714 533 1008 811 794 722 372 1142 769 808 833 836 808 758 739 817 886 886 858 878 814 819 839 867 464 1389 556 1042 750 769 781 789 828 814 764 389 1061 761 794 781 758 778 728 689 664 483 950 772 764 744 706 711 683 728 769 808 864 869 775 739 781 764 781 794 789 775 742 681 444 975 786 783 764 756 456 972 711 739 750 842 506 1136 747 744 769 806 489 1125 883 517 997 725 486 1039 783 536 1000 758 694 669 697 489 983 781 747 692 669 475 919 681 736 744 778 542 956 681 386 1128 786 803 811 814 744 714 711 778 825 839 783 750 706 694 689 697 742 800 767 706 669 639 669 733 717 731 794 808 739 686 725 744 475 1192 781 847 772 725 750 781 836 867 822 772 775 761 758 786 814 833 836
214 768 0.1172 764 719 786 558 1047 822 811 814 747 733 764 836 864 828 856 811 789 794 808 878 458 1358 825 767 808 828 414 1333 906 819 378 1192 783 878 847 867 856 786 778 786 839 875 897 847 783 806 383 1231 850 814 508 1142 717 531 1014 794 517 1117 778 472 1022 703 461 1106 822 794 781 717 719 742 736 803 558 1214 764 769 756 825 833 858 908 881 800 381 1297 911 939 911 911 822 800 831 403 1428 878 806 767 764 792 808 447 1303 844 778 747 811 467 1161 808 825 783 731 719 761 850 844 811 842 775 789 389 1214 875 878 453 1164 744 747 778 758 403 1194 797 719 703 725 750 814 811 806 436 1206 744 767 792 839 861 844 786 792 769 789 825 839 869 817 739 733 408 1197 794 806 808 783 733 742 767 847 881 842 850 781 789 811 814 903 917 875 828 786 861 886 894 914 928 814 808 844 550 1322 883 878 819 394 1183 825 836 850 800 736 764 764 739 811 817 447 1200 728 722 789 786 792 825 819 814 381 1144 800 514 1217 814 806 778 764 792 386 1358 872 853 789 775 461 1203 825 917 875 800 783 792 492 1292 867 883 831 778 767 808 433 1317 844 775 781 739 394 1103 775
214 1024 0.1250 797 789 739 706 731 767 772 794 822 825 822 383 1208 839 867 831 856 467 1183 789 794 850 464 1322 792 781 783 806 822 836 444 592 392 1364 744 772 806 792 528 1058 744 733 692 736 747 814 806 800 775 403 486 1286 819 839 875 811 758 536 1139 825 883 872 444 1294 781 833 883 889 875 872 828 803 817 397 1372 856 797 747 750 775 781 492 1192 853 500 1022 728 756 756 789 792 831 764 711 378 1103 800 822 822 822 806 783 808 847 883 942 900 839 464 1314 864 922 542 1342 811 794 886 867 858 883 406 1261 758 764 425 1281 811 817 786 758 775 764 756 808 808 761 717 717 722 781 811 428 1253 822 767 756 803 561 1158 869 839 839 800 806 861 908 953 508 1283 861 883 858 506 1378 886 797 789 839 842 842 856 836 808 756 767 514 1228 847 828 750 736 750 758 783 872 839 786 753 722 411 1214 817 847 886 792 736 775 808 883 431 1386 867 811 769 833 883 914 911 833 408 1258 786 850 411 528 1461 764 739 750 756 761 778 778 792 722 708 733 806 811 797 819 783 769 758 783 836 481 1356 819 792 769 836 831 839 919 872 783 789 792 842 522 1250 836 500 1094 736
214 1280 0.1094 783 789 856 450 1239 767 772 775 767 506 1147 819 756 703 744 778 781 792 825 806 775 744 775 400 1353 861 881 817 831 519 1228 911 961 894 833 817 892 894 906 986 700 1086 836 831 872 883 417 1356 781 733 775 800 853 867 836 781 764 731 753 792 797 825 772 683 689 736 733 706 739 733 733 700 661 642 717 753 786 764 792 744 731 686 708 747 811 808 781 758 731 564 975 772 828 861 833 764 386 1208 839 844 839 897 428 1181 753 808 883 861 500 1228 786 464 1119 803 553 1161 786 728 744 764 417 1175 800 831 806 731 711 792 836 522 1172 831 800 769 806 803 528 1311 839 836 792 831 853 864 936 925 847 839 867 914 931 917 950 581 414 1347 850 892 828 817 800 756 739 742 778 808 811 753 697 731 469 1022 783 806 814 817 461 989 794 803 817 819 789 756 725 703 708 775 783 756 739 722 678 669 678 592 772 769 733 686 664 647 647 494 886 708 739 786 736 686 481 922 747 783 775 778 800 475 1094 756 817 450 1339 864 817 806 833 544 1175 906 886 817 772 850 461 1267 883 858 847 778 792 886 906 911 503 1308 850 850 847 944 953 486 1275 806 872 875
