# physionet r-r rhythm segments, distilled
# source PhysioNet afdb / nsrdb / mitdb, ODC-BY 1.0
# class Flutter
# segment_beats 256
# selection every 1th of 42 segments in this class
# columns record start_beat premature_fraction rr_ms...
# lead chest, ambulatory Holter ECG - NOT wrist PPG
04908 24832 0.0000 408 396 388 388 376 408 404 412 412 408 404 396 380 404 380 392 396 400 404 432 404 396 392 392 376 408 396 388 428 420 412 404 396 392 376 412 404 404 408 400 424 392 376 400 372 404 376 420 396 416 384 420 392 368 404 384 396 404 416 400 424 384 408 372 396 400 360 416 400 376 788 380 420 376 380 380 380 408 400 424 400 416 396 384 408 396 380 412 404 428 416 400 388 408 388 440 404 412 416 412 400 424 388 412 380 392 388 420 412 416 416 408 380 404 404 372 408 400 424 408 412 396 408 380 408 396 408 396 436 404 424 392 412 392 388 384 392 440 420 404 428 392 380 416 416 392 372 444 388 452 420 388 396 380 384 384 416 392 424 396 424 408 400 380 408 396 376 416 416 396 404 400 396 388 388 384 396 400 412 416 408 404 392 372 400 392 396 400 412 412 416 412 380 396 384 372 408 384 420 416 416 396 416 376 400 404 364 400 416 396 408 400 416 404 364 396 396 408 392 428 396 412 404 388 404 396 380 388 428 424 384 412 400 380 404 400 360 408 408 412 400 424 380 404 412 364 400 396 408 396 432 400 416 384 396 388
04936 47360 0.0000 420 424 412 424 396 424 396 412 416 416 420 424 424 416 408 392 404 420 428 424 416 416 424 420 420 416 416 420 424 436 432 416 408 416 420 404 400 372 420 424 424 428 404 412 412 460 400 456 420 408 432 428 408 428 412 408 420 432 432 424 416 416 412 416 420 412 420 428 436 432 420 416 416 388 436 416 400 444 412 424 424 408 416 408 408 428 424 424 416 420 420 420 416 412 400 420 396 412 432 756 436 412 416 408 416 412 424 424 436 420 456 408 416 424 408 404 432 408 416 420 388 424 420 404 416 420 428 420 408 416 420 420 412 412 416 392 424 420 396 440 412 412 412 420 416 412 412 428 396 452 416 392 452 432 416 464 392 444 420 424 420 408 420 424 400 456 420 396 420 408 404 416 416 556 436 404 560 392 424 404 424 432 572 572 588 644 388 396 400 404 420 424 416 408 408 408 408 420 412 416 416 420 420 420 408 400 404 412 420 416 412 408 420 420 420 404 412 408 420 420 412 428 420 400 412 420 440 388 408 416 416 424 416 392 400 384 440 428 416 420 432 408 428 420 412 408 432 396 408 424 416 416 408 420 412 408
04936 47616 0.0000 408 416 420 424 416 408 408 408 408 416 412 372 432 424 416 412 408 404 408 412 420 420 424 424 408 416 420 432 416 400 436 428 436 424 404 412 412 416 412 408 416 416 428 420 436 412 404 404 420 432 400 416 420 436 424 420 400 416 412 416 428 432 432 420 416 420 420 420 416 428 432 432 440 420 412 412 412 416 416 416 416 424 420 424 416 412 408 412 416 432 408 444 424 400 452 408 420 412 408 420 428 424 416 412 412 404 420 428 400 416 424 436 420 412 412 416 404 384 452 420 416 412 416 416 408 392 516 536 412 416 412 424 400 436 420 424 372 472 428 428 424 412 396 380 456 400 392 404 416 416 400 356 440 360 340 428 388 396 372 424 400 360 348 448 380 380 380 372 388 400 392 384 404 356 372 388 388 432 384 432 676 420 380 372 348 412 380 364 388 392 376 380 388 416 408 404 408 412 416 440 404 424 416 416 416 416 412 408 412 392 460 416 404 404 384 432 420 408 408 416 416 424 380 448 408 400 428 388 460 396 408 404 412 548 528 348 476 540 600 708 368 380 412 416 412 412 404 420 688 376 376 392 376 520 456 452
04936 47872 0.0000 344 340 468 352 456 400 376 464 416 472 536 540 516 356 320 412 428 352 480 488 464 408 388 412 404 420 384 324 480 452 424 420 400 448 408 404 412 432 404 400 384 340 408 352 396 368 344 444 368 428 384 384 340 436 376 396 384 384 380 392 376 380 352 372 348 428 352 368 388 408 384 376 368 404 392 344 468 372 360 508 656 508 484 484 608 608 528 716 436 696 764 480 616 392 384 804 556 548 512 612 688 612 472 364 344 340 380 376 376 376 368 424 436 352 364 348 352 384 392 356 428 388 388 384 568 556 412 400 372 404 400 400 396 392 396 392 380 404 388 400 404 408 400 408 392 416 416 432 428 420 420 420 424 432 412 408 396 440 420 424 404 428 412 428 584 420 404 408 416 460 408 388 400 408 400 440 440 404 420 424 424 424 412 400 392 404 416 416 420 408 416 412 416 408 408 400 432 400 432 572 476 380 404 404 412 400 408 404 428 416 420 404 404 392 420 416 428 416 404 404 444 420 408 400 408 388 448 416 420 372 456 408 412 416 372 452 416 432 424 400 436 420 408 408 432 408 448 400 380 416 416 412 416 396 424 424
04936 48128 0.0000 420 416 392 632 440 428 652 560 520 448 492 416 440 596 432 460 436 448 436 532 608 460 440 440 440 628 484 452 568 396 428 396 412 420 432 424 404 432 396 412 460 396 408 424 428 440 420 408 408 420 416 424 424 412 416 416 416 400 428 392 404 420 412 436 424 408 384 452 412 400 416 408 416 420 404 440 408 388 404 400 428 412 404 416 420 420 424 404 416 400 416 420 408 412 408 408 416 412 408 404 404 372 460 432 380 448 408 412 404 428 404 372 456 416 408 412 408 404 400 412 416 420 404 408 408 416 400 436 408 404 372 468 428 416 412 404 408 392 444 412 408 404 408 436 408 412 404 408 412 400 428 420 416 372 420 416 408 444 408 400 388 468 412 404 404 404 404 432 396 404 408 436 376 468 424 412 416 400 424 388 440 416 408 420 412 404 408 356 448 420 412 412 420 408 420 412 396 416 408 404 444 416 368 448 424 400 412 424 400 372 456 416 428 420 368 384 392 468 404 420 380 440 428 404 424 416 400 396 476 396 416 424 404 328 328 396 420 604 420 420 412 424 412 400 408 408 416 416 416 416 416 420 408 424 388 432
04936 48384 0.0000 396 412 416 380 444 392 372 440 376 436 400 384 396 420 368 416 412 392 392 412 412 424 384 416 388 432 500 460 400 404 408 416 416 360 448 444 388 428 404 364 436 408 416 424 360 412 400 404 408 372 452 408 404 440 420 416 364 444 368 420 448 528 356 388 624 420 408 404 404 400 404 340 484 440 436 408 400 420 404 392 392 440 424 408 408 400 400 404 412 412 404 408 432 420 420 408 404 396 412 412 412 408 388 420 404 404 364 436 400 404 408 420 412 400 392 408 408 416 412 400 396 408 364 456 416 388 392 396 424 416 408 408 396 396 436 412 392 396 396 316 368 392 372 524 496 408 388 364 444 408 396 408 416 388 416 396 368 552 444 448 416 336 412 412 412 372 372 452 376 460 528 468 392 368 448 400 384 420 400 416 424 424 408 388 412 408 376 440 408 404 376 440 404 412 384 444 400 396 416 420 372 444 404 380 404 400 396 396 404 408 416 412 396 400 396 400 360 368 548 540 412 400 388 404 400 416 400 404 412 408 396 400 420 408 400 392 392 396 396 420 408 420 404 408 408 408 384 320 504 400 436 416 384 424 392 400
04936 48640 0.0000 408 404 404 380 424 408 400 416 392 384 412 392 424 368 448 408 408 400 444 380 428 404 400 400 428 404 404 396 404 404 404 392 432 372 436 420 412 408 396 392 400 412 412 408 400 396 400 396 400 400 396 400 408 416 412 404 404 404 408 412 404 404 408 408 412 416 404 392 392 384 420 412 408 404 408 384 428 412 408 384 596 396 460 408 392 388 416 356 448 404 380 412 408 408 416 400 392 392 392 404 372 436 412 404 404 412 412 392 392 396 396 396 420 404 396 400 396 404 400 392 388 396 416 416 412 404 396 392 404 400 404 400 404 400 408 408 404 392 388 396 400 404 408 400 400 408 404 400 404 384 400 404 412 408 400 396 400 392 400 396 392 392 396 404 404 404 400 384 400 384 412 376 436 400 392 404 392 420 392 380 400 396 420 408 408 396 384 412 392 388 432 396 392 432 412 400 412 400 392 396 400 396 400 396 396 416 408 392 396 392 392 420 420 412 412 400 404 404 400 400 392 380 412 400 400 412 328 464 384 404 392 408 404 360 432 616 392 408 348 436 396 400 412 400 396 396 396 400 396 356 420 392 380 440 404 400
04936 48896 0.0000 400 376 424 388 408 404 396 404 408 408 400 400 392 388 396 396 396 396 396 404 408 404 388 388 392 384 416 388 428 396 380 408 400 364 436 396 392 388 420 408 400 396 376 408 396 404 404 396 396 412 396 416 372 412 388 388 400 392 416 396 396 388 404 392 380 404 396 376 412 416 388 364 436 400 400 396 404 396 400 396 412 404 396 392 388 400 404 404 408 412 396 404 404 400 396 392 396 404 412 408 404 388 368 424 396 400 396 360 312 440 432 420 328 364 568 416 416 412 408 400 392 416 400 380 376 404 404 400 376 440 392 400 404 400 412 396 400 408 408 416 416 400 396 396 392 364 440 400 400 396 404 404 408 396 392 388 392 400 384 424 392 400 388 408 396 400 392 392 388 428 396 404 384 388 392 396 404 384 404 392 400 408 412 400 392 396 392 384 444 408 404 400 404 404 400 368 400 396 400 412 412 400 404 404 404 400 404 400 400 400 412 416 404 392 388 388 400 356 404 400 440 404 404 408 400 392 384 348 468 420 416 384 396 408 400 404 388 396 400 404 356 460 400 392 388 380 396 404 348 436 404 408 412 408 396 392
04936 49152 0.0000 392 396 396 420 400 388 388 400 356 432 400 384 392 400 412 408 408 396 396 388 408 404 396 380 408 392 408 408 372 412 388 368 428 412 396 412 408 404 408 412 400 396 396 404 416 412 408 400 380 400 400 404 396 396 396 404 428 396 384 400 400 396 416 404 400 404 396 408 396 404 388 340 316 424 436 484 400 396 400 404 404 400 400 396 396 412 412 388 416 380 412 396 368 428 360 428 400 412 404 372 396 392 404 404 424 408 400 368 388 456 376 408 392 368 440 408 404 400 384 396 404 392 364 440 376 392 420 416 384 388 364 424 404 400 384 432 396 392 344 460 400 384 384 412 388 432 408 396 404 388 408 404 400 396 400 404 416 396 416 384 356 432 396 404 392 412 396 396 400 404 396 396 376 396 420 408 412 396 392 400 396 396 384 380 392 396 400 412 400 392 392 388 392 400 384 404 404 404 412 400 392 408 392 392 400 404 400 380 416 392 372 432 384 384 392 412 408 408 412 396 404 400 400 400 400 392 396 400 404 400 408 388 388 396 396 400 404 396 392 416 384 420 388 396 344 440 404 416 404 392 400 368 428 392 388 400
04936 49408 0.0000 388 424 400 408 388 392 392 396 396 372 436 400 364 444 408 400 388 380 388 416 412 400 400 396 392 400 396 400 376 412 400 416 412 404 396 400 388 372 436 396 388 408 400 372 444 392 388 388 384 408 396 368 448 404 396 408 392 360 432 392 400 412 404 388 404 384 392 388 392 400 384 408 404 412 412 396 388 388 396 396 408 400 396 396 400 396 396 388 376 392 392 392 404 412 396 396 392 400 396 384 336 452 436 412 408 404 396 388 388 400 396 396 404 388 336 476 408 388 336 452 400 408 408 404 400 400 400 400 396 388 384 396 388 380 420 396 392 392 384 404 404 400 388 376 440 412 408 396 324 368 328 480 444 436 416 388 404 408 340 448 392 404 408 420 412 404 396 400 396 412 388 408 400 400 396 396 420 384 364 424 396 396 408 368 416 392 392 408 392 396 372 424 396 404 420 392 376 420 400 396 384 388 404 368 428 404 396 396 344 436 396 400 400 412 344 452 408 376 412 388 388 380 404 404 404 392 404 396 400 396 380 392 396 412 420 420 400 400 392 368 428 400 380 432 404 404 416 408 392 388 388 384 396 404 400 388
04936 49664 0.0000 360 444 404 396 380 380 392 384 420 400 392 388 388 396 392 392 388 368 420 396 404 404 388 388 396 392 380 416 384 388 416 400 400 400 392 384 384 396 404 408 396 396 396 400 388 424 400 388 416 360 332 536 396 388 400 400 408 408 404 392 408 388 420 404 384 392 400 380 428 404 400 392 400 392 404 392 404 384 396 400 408 360 388 380 388 408 396 400 440 396 392 412 416 396 392 392 392 356 408 408 396 388 388 392 400 392 384 380 392 396 404 404 392 396 380 400 404 396 328 304 596 400 388 424 388 380 396 384 392 400 396 396 376 412 396 396 388 380 396 404 408 408 404 392 392 400 384 412 392 384 400 404 408 404 392 396 396 392 400 400 384 408 396 408 316 300 452 364 404 372 400 420 396 360 404 384 416 396 376 404 532 352 504 388 424 388 356 440 400 384 408 396 400 376 432 396 380 392 388 396 400 392 408 396 392 412 396 368 312 420 412 416 412 384 444 388 408 388 384 400 384 388 396 388 400 404 380 396 376 408 388 396 412 400 396 400 400 380 404 384 344 440 388 412 400 380 404 336 456 392 392 396 392 396 428 404
04936 49920 0.0000 392 356 428 396 400 396 396 372 428 396 400 408 388 376 408 392 416 400 408 404 400 404 388 404 344 416 388 412 404 400 396 352 416 384 392 384 404 392 400 396 412 400 384 392 388 396 400 400 396 384 396 396 400 384 388 384 396 400 408 404 388 400 400 396 388 404 396 396 388 408 412 412 392 388 388 392 400 376 416 396 372 428 400 392 376 400 340 440 372 440 400 388 404 380 416 392 356 420 392 408 368 432 396 384 388 388 392 356 432 396 400 404 404 388 380 396 392 380 376 396 400 396 400 344 436 400 332 444 396 412 408 400 396 392 388 392 392 412 392 400 400 408 404 396 388 388 392 400 400 404 392 396 312 496 404 388 388 400 392 412 408 396 388 396 400 400 392 388 384 388 396 400 360 432 392 388 372 416 408 400 396 396 404 404 400 388 380 396 392 400 408 396 392 388 396 384 400 396 384 388 400 360 456 392 384 396 368 412 400 388 388 384 408 368 436 388 380 376 392 392 388 400 400 404 400 400 400 392 384 384 392 388 408 400 368 392 384 380 408 384 392 392 404 392 428 400 392 388 388 396 404 396 396 396 400 400
04936 50176 0.0000 360 436 388 388 384 400 384 424 392 368 424 384 408 360 428 392 384 428 412 404 396 388 396 388 384 392 356 420 400 376 436 400 392 384 400 396 416 412 400 396 400 404 400 388 392 356 436 396 396 400 392 396 388 392 396 392 384 404 364 420 396 400 348 432 396 396 400 400 392 392 388 396 396 336 440 388 388 400 408 400 388 384 396 408 388 372 388 408 400 396 408 388 388 396 384 388 360 432 396 376 412 388 368 436 384 376 400 388 404 404 388 412 384 388 404 396 388 392 400 400 408 404 392 384 408 352 436 400 400 396 396 412 380 408 376 336 368 452 396 396 400 384 396 388 388 384 400 388 392 404 412 344 472 396 392 392 400 396 396 392 400 404 400 400 384 384 388 392 396 400 396 396 400 404 404 400 392 388 384 408 372 444 396 388 396 388 380 412 392 348 436 404 404 384 412 380 400 396 400 360 440 388 372 432 392 396 392 384 384 392 400 328 440 404 388 340 444 392 372 404 392 388 408 408 396 392 388 384 396 400 392 392 392 380 412 400 384 388 388 396 404 408 404 396 392 392 392 404 388 392 392 396 396 400 408 380
04936 50432 0.0000 328 456 396 388 404 396 392 404 400 360 444 384 400 376 404 380 420 404 392 392 396 388 388 372 392 392 412 404 400 380 400 376 408 400 384 400 392 396 404 376 416 340 424 384 388 396 384 404 388 400 400 400 396 384 376 396 416 412 408 388 392 396 392 384 404 376 400 380 420 412 384 344 432 388 388 412 400 400 400 396 420 400 396 392 396 384 400 416 408 396 392 368 424 400 384 396 392 352 456 412 404 400 396 384 416 396 400 384 420 404 408 408 400 388 400 396 404 408 400 376 412 396 404 408 396 384 412 396 404 408 396 396 392 388 404 372 424 392 344 448 404 408 404 392 392 396 400 344 460 396 408 392 412 376 436 384 324 436 372 448 400 396 388 408 372 428 388 392 408 404 404 400 392 384 388 388 388 404 384 392 400 396 396 392 396 372 388 372 420 372 432 388 400 380 404 396 384 400 384 416 384 356 488 392 364 312 504 404 396 392 392 408 408 400 404 392 388 396 412 392 352 480 388 400 400 404 368 408 392 336 464 400 404 376 420 392 400 396 384 412 404 412 400 456 352 436 392 396 396 388 420 400 388 404 408 400
04936 50688 0.0000 396 388 388 404 408 408 400 392 400 400 400 392 348 320 364 360 404 452 372 552 396 396 400 392 388 400 360 328 512 396 392 388 356 408 408 396 392 380 408 384 396 376 352 424 388 400 404 396 384 396 340 448 400 352 368 312 544 408 356 420 392 384 396 392 404 404 396 400 396 404 408 404 384 396 408 408 420 404 400 392 368 424 392 356 432 372 388 396 404 388 420 392 392 400 408 408 404 412 404 400 404 404 376 404 388 388 428 400 400 396 388 404 396 412 396 396 412 408 400 352 464 396 400 400 368 448 388 396 412 412 408 396 392 396 404 412 408 412 400 404 408 400 356 432 396 400 412 416 404 400 396 352 436 400 364 432 400 388 320 332 384 412 484 396 444 448 436 400 404 404 400 348 448 388 384 404 408 408 408 396 392 400 396 420 392 392 408 400 420 408 392 392 400 388 396 404 396 412 392 396 400 400 384 376 384 408 404 404 400 396 404 396 396 412 392 380 400 388 368 452 388 376 388 404 400 400 400 400 392 416 408 404 372 412 380 400 396 404 392 380 420 396 400 340 444 388 392 388 404 380 404 396 380 408 420 396
04936 50944 0.0000 412 400 400 420 388 432 392 348 440 396 404 392 420 396 396 400 400 392 388 388 408 408 416 408 436 392 412 400 400 384 400 404 404 396 412 392 392 384 388 380 408 400 328 468 408 404 400 388 360 424 392 396 400 400 392 368 416 392 388 396 388 392 396 404 408 392 360 420 392 388 400 404 392 396 388 400 400 396 392 388 376 404 404 388 404 392 400 388 396 400 392 388 404 408 408 412 384 388 392 336 384 416 380 388 392 412 364 452 400 384 392 396 412 408 408 388 404 400 400 396 376 384 400 404 404 400 392 392 376 404 392 404 356 424 396 408 416 348 444 356 416 432 396 372 420 392 400 364 456 392 364 404 332 452 404 384 420 392 396 392 408 408 388 392 352 424 408 452 396 392 392 384 408 400 388 372 396 372 424 392 392 392 332 408 412 404 396 404 392 396 396 396 388 380 404 392 408 360 436 392 392 392 396 408 396 332 464 400 400 396 392 384 388 392 396 400 388 388 396 392 400 380 400 388 396 404 408 412 400 388 400 400 396 400 392 388 396 396 400 400 388 384 384 376 420 400 396 328 296 428 336 308 312 392 388 368
04936 51200 0.0000 400 396 332 492 376 404 388 388 380 392 340 428 380 412 384 424 392 376 396 400 416 384 404 412 344 464 400 396 388 384 404 400 400 400 440 396 348 392 404 292 316 436 540 408 424 384 404 380 408 384 412 384 400 364 444 404 400 376 384 324 476 400 412 372 456 404 376 424 400 388 388 388 400 404 404 380 400 388 396 392 384 388 388 360 336 364 548 396 304 512 404 408 404 396 396 396 396 400 384 388 392 388 400 396 392 404 368 420 380 416 400 376 388 412 400 396 360 436 388 388 344 440 396 384 400 376 404 404 396 348 424 384 384 412 396 416 396 344 304 492 436 404 388 392 396 396 392 384 396 380 384 384 384 404 400 392 356 312 520 404 392 384 396 392 412 392 400 396 396 380 408 384 392 388 400 380 352 480 400 380 404 368 428 392 380 396 404 404 400 392 384 388 376 408 400 336 456 400 384 400 396 376 392 344 308 508 444 404 324 424 420 396 388 384 384 408 400 388 396 420 384 384 388 392 396 388 380 420 400 400 408 352 408 384 384 384 396 416 396 392 396 380 392 380 320 488 408 408 372 444 400 388 336 436 404 380
04936 51456 0.0000 404 376 408 396 388 388 376 400 384 376 408 368 416 400 356 444 404 392 368 400 364 416 404 396 392 388 380 380 392 388 388 328 452 396 408 336 440 392 360 424 388 388 404 388 396 396 396 392 388 380 376 400 356 304 536 360 428 392 384 408 376 400 388 400 388 420 392 380 392 392 392 376 292 324 424 364 384 464 520 400 392 400 404 404 396 376 392 408 396 300 280 592 400 396 384 408 400 376 388 412 408 388 400 396 400 380 424 404 384 392 368 300 328 456 428 456 408 312 356 300 304 388 396 368 300 432 392 368 404 384 416 368 444 352 412 344 308 376 412 404 340 424 368 392 412 380 400 368 440 396 372 408 396 388 340 404 372 388 372 444 388 408 392 324 340 476 436 408 420 320 340 508 320 296 492 536 408 400 392 412 404 384 372 420 364 364 448 388 324 308 376 296 296 416 348 312 320 556 436 404 412 400 396 376 388 384 412 324 444 396 416 412 380 404 380 396 392 400 396 348 432 388 384 424 396 368 412 392 396 400 396 404 392 332 436 392 400 348 416 412 388 416 368 428 384 376 392 404 396 396 408 380 408 388 408 332
04936 51712 0.0000 396 376 404 412 392 416 392 396 336 460 400 396 396 396 400 408 424 400 348 424 388 412 388 408 336 448 396 380 412 388 388 392 396 404 400 412 384 408 408 400 396 392 388 388 396 404 396 384 396 384 388 392 380 392 416 440 396 372 432 392 388 388 396 396 352 440 388 388 348 424 392 372 400 388 368 428 404 352 388 424 392 392 396 392 400 388 396 428 408 392 384 388 348 436 404 408 388 412 404 404 404 392 384 388 368 436 400 404 392 404 380 412 388 392 372 396 396 400 400 392 384 380 388 384 404 388 392 400 420 408 404 396 388 388 388 404 404 396 388 408 392 396 388 388 372 356 436 404 396 408 396 376 404 384 408 400 400 400 400 408 392 388 396 392 376 408 392 396 408 392 396 384 412 380 380 384 388 404 400 396 372 396 384 388 376 392 388 380 396 392 396 384 380 388 376 400 380 416 352 424 396 400 396 388 388 380 392 388 408 404 392 384 344 448 400 380 400 400 396 392 420 400 344 424 384 392 400 400 400 396 400 400 388 376 316 484 380 420 396 412 404 380 404 372 420 388 388 404 392 400 404 392 396 388 376 396
04936 51968 0.0000 380 408 396 384 408 396 416 400 404 344 452 408 420 392 372 392 404 400 400 388 396 388 380 416 352 448 400 392 392 324 328 536 380 440 416 416 408 408 392 392 368 436 396 396 420 392 420 396 400 384 396 388 384 376 428 408 400 392 392 400 384 424 368 404 412 416 408 360 344 436 384 400 404 384 380 420 396 408 416 364 412 388 396 380 424 404 400 392 392 388 392 404 388 388 432 392 412 400 400 400 392 392 372 412 396 400 368 444 400 396 388 388 388 396 408 396 400 396 400 400 396 396 348 432 392 396 424 396 404 392 396 396 396 384 392 388 388 408 384 408 376 376 380 404 404 392 392 420 396 412 396 408 388 412 360 476 388 496 576 408 376 688 464 520 336 400 400 416 396 392 388 400 404 416 400 400 400 400 400 388 408 384 372 436 408 404 412 388 412 352 468 404 400 400 404 412 412 404 396 340 448 400 396 396 392 396 404 408 400 412 384 392 396 408 416 412 396 388 404 400 404 392 404 400 388 428 416 392 384 396 400 404 404 400 400 396 408 404 408 392 396 388 392 404 408 400 392 392 392 396 372 428 336 396 400 424
04936 52224 0.0000 412 404 364 424 388 368 436 392 396 396 400 396 400 396 380 396 352 444 404 396 392 412 368 440 396 392 348 428 400 404 416 404 400 396 392 392 400 368 404 392 412 396 420 376 372 392 396 400 404 392 384 440 392 408 368 488 384 392 392 396 404 392 392 412 392 400 388 360 428 396 400 420 404 388 392 400 396 400 380 420 396 396 400 396 388 396 372 388 388 400 404 392 392 348 464 404 404 396 388 396 404 408 396 396 412 388 404 404 408 392 360 444 408 408 408 400 392 404 372 444 388 384 400 388 432 400 400 392 392 388 404 400 388 428 384 356 456 404 396 388 408 404 404 420 396 400 396 396 408 356 448 400 388 404 416 404 400 396 392 344 464 416 396 396 400 404 416 348 452 396 376 404 444 408 388 400 396 400 404 408 396 404 404 396 404 408 396 392 396 400 408 408 416 396 400 392 400 400 392 380 408 376 440 404 368 424 396 404 404 396 364 436 404 408 408 396 380 388 348 448 400 400 404 388 392 400 400 376 416 388 396 404 416 404 400 396 392 400 400 396 392 396 388 404 392 384 400 368 400 380 400 408 404 396 404 404
04936 52480 0.0000 400 396 376 400 384 408 372 444 388 364 420 396 396 404 348 396 400 412 396 464 396 396 384 408 404 400 396 400 408 408 392 404 388 388 396 408 408 404 400 380 424 408 392 388 380 396 404 412 412 404 392 392 392 392 392 400 380 408 412 416 408 404 396 396 396 412 408 408 400 404 404 404 392 388 388 392 360 448 408 384 392 388 400 404 400 396 396 404 408 400 420 400 404 372 400 408 404 396 408 388 384 412 396 400 368 400 396 420 396 396 396 408 412 408 400 400 400 408 368 448 404 400 396 380 412 396 408 424 360 364 456 404 396 384 396 392 392 416 396 412 404 408 392 384 392 400 392 392 364 468 404 384 404 396 392 400 400 396 400 424 392 432 388 392 400 392 400 396 372 372 368 504 564 400 404 396 416 416 420 412 408 400 400 392 404 396 404 384 412 412 400 400 388 360 388 588 604 380 616 640 384 396 408 608 540 676 368 380 396 396 396 400 388 396 408 444 400 412 396 404 404 392 412 408 420 412 404 408 432 408 376 396 384 416 408 404 408 412 412 412 408 404 404 416 420 424 408 412 404 400 404 412 364 444 396 408
04936 52736 0.0000 420 408 344 456 408 376 400 420 412 416 412 416 420 416 404 400 404 404 420 420 412 404 400 432 388 396 372 424 412 420 412 396 344 496 392 404 408 356 372 428 404 392 396 408 396 396 400 416 412 412 416 444 548 484 388 612 428 596 440 424 604 376 372 752 584 456 412 668 404 372 508 480 388 384 472 352 412 360 444 404 388 388 412 376 680 416 496 448 424 408 444 368 396 404 416 424 392 404 404 432 380 396 428 368 648 432 520 396 396 392 404 392 424 424 380 400 396 412 408 392 416 408 420 480 540 564 396 412 416 364 656 428 680 396 376 396 388 648 636 396 584 440 400 636 372 460 352 376 520 352 400 472 332 428 380 420 444 468 384 396 504 400 312 376 400 408 440 416 416 400 412 412 404 404 392 416 408 416 420 412 404 404 404 412 408 408 404 408 416 412 416 388 404 408 408 408 416 396 372 444 412 408 408 396 392 380 428 408 388 440 384 396 384 440 384 400 404 412 420 416 404 396 400 404 408 412 408 408 388 416 400 428 380 368 436 380 380 412 428 396 412 396 412 364 444 396 384 384 456 416 404 380 388 412 400 408
04936 52992 0.0000 388 404 400 440 376 456 396 396 420 420 396 428 396 428 400 416 408 388 368 440 412 420 368 456 404 392 404 412 400 420 408 408 400 436 408 424 380 404 404 416 388 400 404 384 452 404 396 400 372 444 416 424 412 416 408 412 404 408 396 416 408 412 404 416 404 416 400 408 416 408 372 452 412 424 408 412 404 376 392 448 408 412 396 404 404 416 404 408 400 408 412 368 464 416 400 404 408 392 444 416 408 424 408 436 400 396 404 396 408 412 400 412 388 396 400 360 452 396 404 380 408 444 412 388 400 408 404 424 416 392 412 412 412 396 392 376 428 400 392 440 412 404 408 408 400 416 396 388 404 396 436 412 400 400 380 372 428 408 404 396 420 416 416 404 404 396 396 408 420 412 412 408 396 408 408 400 396 396 416 404 428 404 392 408 412 404 408 404 404 412 416 412 416 360 448 416 436 548 372 672 536 540 344 424 416 364 392 416 412 388 740 500 396 452 384 416 612 456 440 540 400 380 420 400 404 432 360 380 476 520 556 420 548 608 508 388 384 704 488 380 668 380 384 400 408 412 400 412 400 412 392 528 448 424 428 420
04936 53248 0.0000 396 404 388 408 408 416 408 400 372 416 408 404 352 448 408 408 408 424 388 416 400 388 432 388 396 400 428 412 408 416 360 444 408 384 420 420 408 412 392 412 420 344 432 400 412 400 380 456 360 444 404 408 400 400 400 412 412 424 420 408 404 408 408 420 416 408 412 420 424 412 412 404 392 408 388 416 416 412 408 412 400 412 424 408 404 412 448 420 400 404 392 408 412 404 404 348 464 408 424 412 404 404 412 416 424 412 404 420 416 416 412 408 400 404 412 416 416 400 400 388 400 380 448 404 416 368 452 420 392 384 404 412 412 420 408 408 416 428 392 408 408 396 408 412 416 412 408 404 396 412 412 416 412 396 404 416 432 528 500 596 388 380 352 708 396 348 384 408 420 396 388 416 396 488 388 408 408 424 404 408 404 428 600 396 608 428 516 544 560 360 608 608 412 400 504 612 552 508 564 424 428 412 412 420 420 392 464 368 816 424 608 516 604 552 636 444 392 420 416 400 472 544 424 452 372 408 412 404 416 416 508 336 364 460 384 552 468 316 348 632 376 656 476 448 464 420 436 360 408 396 504 584 636 372 656 428
07910 6656 0.0000 608 644 572 592 600 600 580 576 596 596 620 816 816 600 608 572 552 564 596 572 596 772 864 576 564 556 556 560 540 564 572 564 552 552 544 552 808 588 584 552 552 552 592 584 560 572 564 580 576 540 524 560 564 568 564 572 556 552 548 580 552 544 544 568 552 556 556 568 548 556 548 548 556 552 560 544 576 544 564 528 560 560 556 536 548 528 536 524 528 548 552 560 552 528 556 556 560 540 552 528 564 544 548 532 556 552 560 524 584 512 544 536 536 524 564 524 532 560 560 572 556 548 516 556 532 532 528 560 532 544 532 540 520 516 536 528 536 536 540 536 536 528 512 532 536 540 536 532 536 536 516 536 536 532 532 536 532 524 492 572 520 472 528 516 508 528 524 528 544 512 528 540 536 532 540 544 532 532 544 540 540 532 524 528 540 536 532 524 528 528 516 528 528 544 528 524 504 532 516 516 524 512 508 524 512 536 536 524 524 520 532 536 524 528 528 532 524 496 512 528 508 504 528 520 508 516 524 504 520 496 492 500 504 520 524 508 516 520 504 516 508 520 504 536 520 508 516 508 520 532 524 532 520 524 508 512
07910 6912 0.0000 520 524 532 504 536 528 528 520 540 524 524 500 524 516 528 504 504 524 512 528 516 524 540 536 520 532 528 520 524 496 500 704 532 488 720 680 592 792 516 516 500 504 500 520 504 512 508 524 532 504 500 500 500 508 508 504 500 500 496 488 496 500 512 508 520 516 524 496 524 508 512 500 520 508 516 520 528 524 572 540 572 928 984 540 528 508 548 528 524 512 508 504 528 520 508 512 728 596 716 524 512 512 504 508 508 516 516 508 508 516 512 516 508 500 516 512 512 524 508 504 500 508 520 540 504 500 512 504 508 500 504 504 500 508 508 508 508 508 496 520 512 512 492 508 512 508 500 508 500 504 504 512 504 500 488 516 492 500 504 896 516 504 500 512 508 508 496 508 504 516 512 504 500 508 512 508 516 512 504 512 516 520 508 500 512 508 532 524 516 516 512 500 500 500 500 496 504 480 488 500 488 904 1352 984 984 1012 928 708 736 552 516 504 508 504 512 508 516 508 504 512 500 496 484 504 504 516 496 496 500 500 492 492 500 488 496 480 800 756 664 584 936 984 580 536 904 972 552 528 928 740 964 744 904 704 788 652
07910 7168 0.0000 892 872 676 860 1020 900 884 1056 916 516 500 496 504 488 516 504 504 512 504 504 512 496 504 516 508 516 508 512 504 500 512 520 512 500 516 492 520 496 516 496 492 492 512 492 508 500 484 504 500 496 496 488 492 492 496 500 500 788 944 828 616 1008 520 804 828 692 792 820 740 736 752 920 568 904 740 756 720 676 732 732 540 508 504 484 496 496 496 500 516 504 496 504 496 512 496 492 496 880 512 520 508 536 524 492 488 484 496 500 500 492 504 500 492 500 496 516 516 488 520 488 516 848 532 524 544 844 536 504 496 496 492 508 500 512 492 488 492 492 508 480 488 860 500 488 772 536 496 1484 488 804 796 860 844 548 892 760 700 528 500 508 504 488 512 476 512 476 832 520 496 496 508 500 504 500 508 504 492 500 492 508 832 524 504 500 500 480 888 596 892 988 620 868 664 888 724 944 1196 980 1000 980 996 976 992 988 996 984 592 900 972 596 908 956 992 1000 1000 924 936 948 752 672 888 532 488 488 496 496 492 496 500 492 496 504 492 504 496 504 488 508 496 504 492 480 480 476 476 488 500 496 492 500 500 500 500 500 500 504
08378 3072 0.0000 432 436 440 436 440 440 444 436 440 436 436 436 440 444 440 440 440 436 436 436 436 440 440 432 436 436 436 436 436 432 432 436 436 440 440 440 436 440 436 432 440 436 440 436 436 432 436 436 436 436 432 436 436 436 440 436 436 440 440 440 444 440 440 444 444 440 444 444 440 448 444 440 444 440 444 444 444 444 448 444 448 444 448 444 448 448 448 448 448 448 448 448 448 444 444 444 444 448 444 440 444 444 444 440 444 444 444 440 444 440 448 444 452 444 448 448 444 448 448 444 448 448 448 452 452 452 452 452 448 452 456 452 456 456 456 456 456 456 456 452 452 456 456 456 452 452 452 452 452 456 456 456 452 456 452 448 448 456 452 456 452 452 448 448 444 440 444 444 448 444 448 444 440 436 436 440 432 444 444 436 440 436 436 432 436 440 432 436 440 432 436 440 432 436 432 432 432 432 436 436 432 432 432 436 436 436 432 440 436 432 432 428 432 440 436 432 432 428 428 424 436 432 432 432 428 428 424 428 432 436 432 436 440 432 440 436 432 436 432 436 432 432 436 432 436 428 432 428 432 436 436 440 440 444 448 444
08378 3328 0.0000 448 444 448 448 452 456 448 448 452 444 452 448 456 452 456 448 448 452 452 448 448 448 452 452 456 452 456 452 448 452 452 452 460 456 452 452 452 448 452 452 448 452 456 452 452 456 452 448 452 452 460 456 456 456 456 456 456 460 460 460 456 456 460 456 456 460 460 460 456 460 460 460 456 460 456 464 460 460 464 460 464 456 460 460 460 460 460 460 456 456 456 452 460 456 460 460 456 456 456 460 464 460 464 460 456 456 460 452 452 452 452 448 452 448 448 448 444 448 448 448 448 448 448 448 444 440 444 440 444 444 440 440 444 436 440 436 436 436 440 440 444 436 436 436 436 440 440 444 444 440 444 444 440 440 440 440 440 444 444 444 444 440 444 440 444 444 448 444 452 444 448 448 448 448 452 448 452 452 448 448 452 444 448 448 448 448 448 444 448 440 448 444 448 448 448 448 448 448 444 444 448 444 444 448 448 444 448 440 444 444 444 444 444 448 444 444 444 448 448 444 452 448 448 448 444 448 444 448 444 448 448 444 444 444 440 444 444 444 444 444 444 444 444 444 448 444 448 452 448 448 448 444 448 444 448 452
08378 3584 0.0000 452 448 448 448 448 448 444 452 452 448 456 452 448 452 452 448 452 452 452 456 452 452 448 452 448 452 452 452 452 448 448 444 448 448 444 452 448 452 448 448 452 448 448 448 448 452 452 452 448 452 448 448 444 444 448 448 452 448 448 448 444 448 440 448 444 452 444 444 444 444 440 444 448 444 448 452 444 448 448 444 444 448 448 452 448 452 448 452 444 452 448 452 448 452 448 448 448 448 448 448 444 448 448 448 444 448 444 448 444 448 448 448 444 444 444 448 444 448 444 448 448 444 448 448 452 448 448 452 452 448 452 452 452 452 456 452 456 456 452 452 456 452 456 456 452 456 456 456 456 456 452 456 456 456 460 456 452 456 456 452 456 456 456 460 460 456 452 452 448 456 452 452 452 456 452 452 448 452 452 452 452 456 452 452 456 452 452 452 452 452 452 456 452 452 452 448 452 452 452 452 452 452 452 448 452 452 452 452 452 452 456 452 452 452 452 456 452 456 452 448 448 448 448 448 452 452 452 452 448 452 448 456 452 448 452 452 452 452 452 444 452 448 452 452 448 448 452 444 448 444 448 444 448 444 444 444
08378 23808 0.0000 432 428 428 436 428 436 428 432 432 432 428 432 428 436 436 428 428 432 432 428 428 432 428 436 432 436 428 432 432 432 432 432 432 436 420 432 428 428 428 432 424 428 428 428 428 424 428 424 424 428 432 432 424 428 424 428 428 428 424 424 424 424 420 424 424 424 420 428 420 428 424 432 424 424 424 424 424 428 428 428 432 428 428 432 420 428 424 428 428 428 428 432 420 428 424 432 432 432 428 432 428 428 428 428 432 428 432 428 428 436 428 432 428 432 424 428 428 432 428 432 424 428 428 428 428 432 432 436 432 428 428 428 432 432 428 436 432 432 428 432 428 428 428 428 432 432 432 432 428 432 432 432 428 436 432 432 436 432 432 432 428 432 432 432 436 432 436 432 428 432 428 428 432 436 428 432 432 432 428 432 436 432 436 436 432 432 428 428 432 436 436 432 428 432 428 436 432 428 428 432 428 432 436 432 432 436 428 436 428 436 432 436 432 432 432 432 428 428 436 436 432 432 432 432 428 432 432 436 432 432 428 436 432 428 436 432 432 432 432 432 428 428 432 432 428 428 428 432 432 432 428 428 428 428 428 428
08378 24064 0.0000 432 432 428 432 428 436 432 428 432 432 432 432 428 428 432 424 432 432 432 436 436 432 436 432 432 436 432 436 432 432 432 432 436 436 436 440 428 428 428 436 432 432 428 432 428 432 432 444 436 436 432 432 432 428 432 436 428 432 432 432 428 432 436 432 432 432 432 432 428 432 436 436 432 436 436 432 436 436 436 440 436 436 436 432 436 432 432 436 436 432 432 432 432 432 432 436 436 432 432 440 428 436 436 436 436 432 436 432 432 432 432 428 432 432 432 432 428 436 428 432 428 432 432 432 432 432 432 432 436 432 436 432 432 436 432 432 432 436 428 432 428 428 432 432 432 436 428 432 432 432 432 432 432 432 432 436 436 432 432 436 428 432 432 432 436 432 432 432 428 428 436 436 432 440 432 436 432 432 432 436 436 436 436 436 432 432 436 436 436 432 436 432 432 436 432 432 436 432 432 432 436 432 436 436 436 432 432 436 432 432 436 436 436 432 436 428 432 436 432 432 432 432 432 432 432 432 436 436 436 436 432 436 432 432 432 432 436 432 436 432 432 440 432 432 432 436 432 436 436 432 436 432 432 432 436 440
08378 24320 0.0000 436 436 432 432 432 432 428 432 432 436 436 432 436 432 432 432 432 436 436 432 436 432 432 436 428 436 432 436 432 436 432 428 432 428 432 428 432 432 432 436 432 432 432 436 432 432 436 436 440 436 432 432 432 432 432 436 436 436 432 432 428 432 432 432 436 436 436 432 432 436 436 436 436 436 432 440 432 436 432 436 432 436 432 436 436 436 436 432 428 432 432 436 436 440 432 440 436 432 436 436 436 440 436 440 432 436 432 432 436 436 432 436 432 436 432 436 432 432 436 436 436 432 444 440 440 436 436 436 436 432 436 440 436 436 432 436 436 432 436 444 436 436 436 432 432 432 432 440 440 436 440 440 436 432 436 436 440 436 436 436 432 436 436 436 436 440 440 436 436 440 436 436 432 436 432 436 440 440 440 440 436 436 436 436 436 444 436 436 436 436 432 436 440 440 440 444 440 440 432 436 436 440 436 440 436 440 436 436 436 436 436 444 436 436 432 436 436 440 432 432 436 436 436 436 440 432 432 428 428 432 436 436 432 436 432 428 428 432 432 432 428 436 432 428 432 432 428 432 432 432 432 428 436 428 428 428
08378 24576 0.0000 424 428 432 428 436 428 424 428 424 424 432 428 432 424 428 424 432 428 428 428 428 424 432 432 428 428 424 424 424 428 428 432 432 428 432 424 428 432 428 432 428 432 432 428 432 432 428 432 428 432 432 436 436 432 428 428 428 428 432 436 436 436 432 436 432 432 432 436 440 440 436 440 432 436 432 436 432 436 440 436 436 436 432 436 428 432 436 440 440 440 440 436 432 436 436 436 436 440 436 436 432 436 436 436 436 440 436 436 436 436 432 432 436 436 432 440 440 440 440 440 436 436 436 436 440 436 436 444 432 436 436 432 436 440 440 436 436 436 436 432 436 440 440 440 444 440 440 436 436 436 440 436 440 440 436 436 428 436 436 436 440 440 436 436 432 436 436 436 436 440 436 440 436 436 436 436 436 436 432 436 440 436 436 436 432 436 436 436 436 440 440 440 440 436 432 436 436 440 444 444 440 436 436 432 436 436 436 444 436 440 432 436 436 436 440 440 444 440 436 440 432 436 440 440 436 440 440 440 436 436 432 436 440 440 436 440 440 436 440 436 436 444 436 444 440 440 444 440 440 436 436 440 440 440 444 440
08378 24832 0.0000 436 440 432 436 436 440 436 440 440 440 436 440 436 440 440 440 440 440 432 436 436 436 432 436 436 444 440 444 432 436 432 436 436 440 440 440 436 440 436 440 436 436 440 440 440 440 436 436 432 436 432 440 440 440 436 440 432 436 436 436 436 440 436 444 436 440 432 440 436 444 440 436 440 436 436 436 436 436 436 436 444 440 436 440 436 440 440 436 440 440 440 440 440 436 428 440 424 440 436 440 432 436 432 428 432 432 436 436 436 436 436 432 428 432 428 440 432 428 432 432 428 436 432 428 432 428 432 432 424 428 428 424 424 424 428 440 432 432 428 428 424 428 424 432 428 432 432 420 432 432 428 428 424 428 424 432 428 432 432 428 424 432 428 436 436 428 424 428 428 432 428 428 424 428 424 436 424 424 424 428 420 428 432 432 428 428 424 424 428 432 424 436 428 428 428 424 424 424 420 424 428 420 428 432 420 424 424 428 428 428 420 432 432 428 420 428 424 424 424 432 428 432 420 428 420 424 424 420 420 420 420 420 416 416 424 424 428 420 424 424 416 428 424 424 420 424 420 424 424 432 424 424 424 420 424 424
08378 25088 0.0000 420 428 420 424 416 424 424 424 424 424 424 428 424 428 424 424 424 428 424 424 424 428 424 424 428 428 424 428 424 424 420 424 428 424 416 424 432 424 420 424 416 424 420 428 428 420 420 424 416 420 424 428 424 420 416 424 416 424 416 428 416 424 416 424 424 424 416 424 424 420 416 420 420 424 424 424 420 424 420 428 424 420 424 428 420 424 420 420 428 420 420 424 424 424 420 424 420 420 424 424 424 428 416 424 416 428 424 428 424 424 420 424 420 420 420 420 424 424 420 424 424 424 428 424 416 424 420 420 420 416 420 424 424 428 420 424 420 424 424 428 428 424 416 424 420 420 424 424 420 424 420 420 424 428 420 420 420 424 420 420 420 420 428 428 424 428 424 424 420 424 420 428 420 424 416 420 420 420 424 428 420 420 424 420 420 424 420 428 424 428 428 424 420 424 424 424 424 428 420 420 424 424 416 428 420 424 420 424 420 428 424 428 420 424 420 428 420 428 420 424 420 428 424 432 424 428 420 432 424 428 424 420 424 424 424 428 420 424 420 424 424 428 428 432 416 432 424 432 432 428 420 428 420 428 428 428
08378 25344 0.0000 428 428 420 424 424 424 420 428 420 432 420 432 424 428 420 428 428 428 424 428 424 424 424 428 424 432 428 428 424 424 424 424 428 428 428 436 424 424 428 428 428 428 428 428 428 432 432 432 424 424 424 428 428 432 424 432 424 428 428 428 420 428 428 432 428 432 432 432 424 424 428 428 428 436 428 432 424 424 424 432 428 436 432 432 428 428 428 432 424 432 432 436 436 436 428 424 432 432 428 428 428 432 432 428 428 428 420 436 432 432 428 428 428 428 428 428 428 432 428 432 428 436 428 424 424 420 416 428 428 428 424 424 420 428 428 428 424 432 420 428 428 424 424 428 420 428 424 428 428 432 428 428 420 424 420 428 428 428 428 432 424 432 432 432 428 424 428 432 432 428 432 424 428 428 424 432 432 432 428 432 428 432 428 432 428 436 428 432 432 436 432 432 428 436 440 436 432 436 428 436 432 428 428 432 432 440 432 432 424 428 428 436 432 436 424 436 428 436 428 428 428 432 432 436 428 428 424 432 420 428 428 436 432 432 428 432 424 428 428 432 432 432 436 432 428 432 432 432 432 432 432 432 432 432 432 432
08378 25600 0.0000 428 428 428 436 432 436 436 436 432 436 428 436 432 440 436 440 432 432 432 432 436 436 440 436 436 432 432 432 436 436 436 440 432 440 432 432 432 436 428 432 428 436 432 428 428 428 424 428 428 436 432 432 432 428 428 428 428 432 432 432 436 432 432 436 432 428 432 432 432 436 432 436 428 432 428 432 428 436 432 440 432 436 436 432 432 436 432 444 440 440 436 436 436 440 428 436 432 432 436 440 432 436 432 436 432 440 432 440 436 436 436 432 436 436 436 436 440 436 436 436 428 436 432 436 436 436 432 432 432 432 432 436 432 436 436 436 432 440 432 436 432 436 436 440 436 436 436 436 432 432 432 432 436 440 436 436 432 432 432 440 432 440 436 436 436 436 432 436 432 440 436 440 432 440 432 436 432 436 428 440 440 440 428 440 436 416 432 432 444 428 440 436 436 428 432 432 428 440 436 424 436 428 428 432 428 424 436 428 428 432 432 424 436 424 428 428 428 432 432 428 432 428 428 424 428 432 432 436 440 428 436 424 432 436 436 432 448 428 432 436 436 440 444 432 440 436 440 432 436 436 436 436 444 436 444 440
08378 25856 0.0000 440 440 452 432 444 436 436 440 444 440 452 436 440 444 444 436 444 440 440 440 440 436 444 436 440 448 444 444 448 432 444 444 444 444 448 440 444 440 444 444 444 440 444 440 440 440 444 440 444 440 440 444 444 444 444 444 440 440 444 444 440 440 444 440 456 436 436 440 440 440 444 436 440 444 440 440 444 436 440 444 448 444 444 440 440 444 444 444 444 440 440 440 444 440 444 436 444 440 440 440 444 444 444 444 456 436 444 444 444 444 456 432 444 440 440 448 444 440 436 436 440 440 448 436 444 440 440 440 444 440 444 440 444 440 440 440 436 440 444 436 436 436 436 436 432 440 444 436 440 436 432 436 444 436 440 436 436 440 440 436 440 436 436 436 436 436 440 436 436 440 436 432 440 432 440 440 444 440 444 436 436 440 444 436 444 436 440 436 440 440 444 440 440 440 444 436 440 440 440 440 444 440 444 440 444 448 440 444 444 440 440 444 448 444 448 440 440 444 448 444 448 444 444 444 448 448 452 444 452 452 448 456 452 452 448 452 452 452 452 452 452 456 456 452 452 456 456 460 464 460 464 452 460 456 460 468
203 1280 0.1172 311 333 706 483 686 353 650 719 606 556 664 353 308 339 419 339 800 369 556 525 597 461 536 575 614 597 386 308 372 631 661 361 383 778 400 314 531 486 625 758 644 819 514 694 378 322 350 614 644 481 375 417 458 681 469 617 431 325 375 672 622 742 728 406 356 497 492 369 361 567 406 567 678 325 364 578 339 350 631 931 364 342 647 469 742 608 294 800 439 550 800 403 656 489 469 906 367 719 850 589 497 886 483 342 294 403 761 358 553 333 583 350 383 936 381 683 594 739 408 522 700 500 389 347 344 783 408 303 378 597 583 728 711 661 411 336 328 686 681 467 439 586 811 433 617 733 575 458 614 397 356 331 411 703 400 392 617 419 1011 389 594 597 331 475 553 747 567 392 511 369 622 986 692 797 944 669 489 744 369 889 653 1192 472 639 889 933 1019 442 372 347 644 725 844 683 650 797 572 581 533 539 758 381 311 378 367 564 783 619 436 367 314 344 511 711 661 433 592 586 342 317 342 603 342 681 631 403 722 681 358 408 478 675 533 411 378 286 600 611 617 403 719 667 339 989 369 869 558 681 625 403 364 381 392 383 883 394
203 1536 0.1250 533 500 461 481 397 322 722 731 461 372 575 664 678 406 833 700 422 544 344 722 603 653 644 428 406 611 553 864 678 703 436 675 781 372 361 958 653 772 689 536 503 500 364 594 622 786 389 331 403 356 578 831 403 333 725 739 750 425 742 717 453 478 708 517 356 647 436 606 717 808 614 744 964 611 553 731 1017 672 842 378 356 383 317 603 417 808 950 789 828 806 597 636 431 656 547 839 761 600 392 347 386 631 461 633 997 806 517 831 764 953 592 419 342 361 389 792 436 625 350 778 553 606 642 797 644 853 625 400 306 678 400 586 669 1006 836 542 936 867 833 553 758 858 786 697 711 872 758 633 369 850 419 353 742 747 1039 1189 389 1294 639 397 375 922 442 889 697 1072 664 378 933 811 969 622 633 719 467 636 661 356 347 464 411 400 319 356 528 528 425 669 503 772 561 942 439 933 644 583 989 786 353 383 453 675 472 486 433 950 367 697 714 650 597 733 631 364 600 406 669 508 669 583 431 372 636 369 1006 419 475 472 1008 389 514 381 378 1014 347 1131 481 617 731 669 928 692 886 750 350 611 736 656 1050 447 381 658 633 689 358 686
