# physionet r-r rhythm segments, distilled
# source PhysioNet afdb / nsrdb / mitdb, ODC-BY 1.0
# class Junctional
# segment_beats 256
# selection every 1th of 102 segments in this class
# columns record start_beat premature_fraction rr_ms...
# lead chest, ambulatory Holter ECG - NOT wrist PPG
03665 26624 0.0000 1056 1040 812 728 736 732 712 728 728 700 728 708 728 716 432 1084 756 724 724 704 748 724 432 1164 768 760 736 712 740 708 732 720 708 724 732 708 456 1268 1112 1044 788 744 764 724 724 728 724 732 504 1144 1084 832 724 736 732 728 748 728 712 744 716 728 728 732 508 1184 792 728 728 744 728 740 736 716 744 724 736 732 504 1156 764 764 744 716 764 736 736 732 732 712 736 444 1120 768 728 740 712 760 724 720 740 724 708 740 712 732 736 728 720 440 952 796 708 732 728 728 720 748 732 724 732 508 1212 932 1064 892 500 1152 796 740 748 724 764 720 748 712 720 728 724 712 736 712 492 1216 1004 812 748 748 728 728 744 716 740 736 712 712 748 716 728 740 724 732 732 720 752 740 508 1164 772 756 724 752 748 724 768 728 736 740 728 732 736 728 756 732 732 744 720 716 760 720 752 736 416 1232 784 740 760 728 736 748 728 716 756 732 728 744 728 720 748 732 504 1024 792 724 752 732 732 732 724 716 768 724 732 732 736 708 768 740 732 736 744 716 748 740 732 744 728 732 764 724 736 736 508 988 808 732 772 748 728 748 724 756 740 732 736 732
03665 26880 0.0000 712 772 736 732 736 440 1300 896 772 744 760 732 740 744 724 720 756 724 736 744 724 724 388 1228 836 744 736 732 724 736 728 724 768 724 728 736 720 716 752 720 752 752 736 728 740 708 772 752 728 736 748 720 764 740 740 740 744 728 752 720 736 732 724 748 748 712 752 724 720 740 736 720 760 724 728 732 732 712 756 732 732 736 724 716 768 736 732 744 736 716 772 744 728 752 728 396 1336 864 792 756 736 784 736 724 748 720 720 792 500 1228 792 744 740 744 728 744 744 720 764 728 504 1000 776 736 760 728 728 736 732 736 748 720 760 740 728 736 748 724 772 732 732 740 720 720 760 732 740 744 736 724 748 504 1016 756 752 768 728 744 744 728 716 772 716 732 504 1308 872 764 752 756 728 776 756 728 772 760 724 768 732 744 744 724 804 756 732 756 724 752 732 768 744 736 748 736 720 776 732 736 744 728 728 772 504 1252 812 740 744 744 732 744 732 712 764 732 724 728 728 496 952 748 724 740 728 756 736 732 752 732 720 760 724 744 740 720 736 764 716 768 744 728 740 724 728 752 736 748 740 728 744 720 728 760 508 960 756 732
03665 27136 0.0000 740 744 440 1072 740 744 768 732 500 1568 784 752 724 784 716 432 1052 756 736 752 716 760 736 732 748 740 724 776 740 500 964 772 736 768 736 732 732 732 724 776 712 436 452 1172 764 752 752 724 788 744 740 744 716 728 780 388 1164 756 740 740 772 708 744 748 700 724 764 708 732 768 728 724 744 736 704 768 708 736 760 724 728 752 712 736 732 744 724 744 752 720 768 720 744 736 744 720 772 740 732 744 736 728 736 728 716 780 704 740 768 692 732 744 716 740 720 736 728 748 720 724 740 728 724 748 728 752 732 728 724 744 716 772 704 728 740 632 748 780 700 736 736 724 712 752 704 720 760 724 740 736 720 732 724 720 748 692 724 740 680 724 756 676 732 752 672 728 744 672 736 728 724 764 688 732 736 708 780 716 736 752 704 716 760 692 720 748 688 724 760 684 728 748 696 716 768 696 720 752 720 728 688 748 724 672 384 1312 848 744 724 748 676 732 708 720 688 748 668 748 708 712 768 696 728 760 692 668 744 716 664 768 744 676 756 672 676 768 740 680 688 704 672 692 688 664 696 644 664 780 676 680 776 636 668 772 648 676
03665 27392 0.0000 800 736 664 756 644 672 768 660 680 636 720 672 668 652 660 676 700 660 668 692 648 1168 880 816 740 680 688 660 660 800 768 692 744 632 668 772 684 1752 1104 772 740 652 652 620 668 708 628 648 684 632 648 680 636 652 672 644 656 660 644 656 656 704 668 660 700 616 616 636 612 664 720 656 660 648 616 652 708 628 656 704 632 608 680 636 608 608 624 608 612 416 844 676 668 632 416 832 768 664 676 636 604 652 424 904 692 508 748 680 688 624 612 416 892 684 676 636 608 664 420 860 644 636 616 420 900 624 600 624 420 832 864 788 696 652 620 612 420 844 684 664 628 604 416 780 624 604 616 420 824 692 632 596 420 876 624 608 492 400 1036 652 612 656 672 628 600 660 420 852 640 616 600 608 416 836 636 668 636 592 596 412 840 668 628 624 596 656 424 844 628 616 424 772 640 616 600 420 828 632 624 612 416 772 644 600 592 416 780 608 600 624 424 764 632 596 600 412 828 640 624 608 600 420 832 620 616 616 588 596 420 832 628 612 620 596 600 420 828 632 628 608 420 768 620 592 592 420 820 1216 768 624 592 624 408 1224 1152 1100
03665 27648 0.0000 840 648 612 624 616 608 596 420 832 632 616 616 596 604 608 600 412 752 616 588 592 412 816 620 608 600 592 412 764 604 592 608 412 764 612 604 592 416 756 616 588 596 420 768 608 616 596 588 612 416 764 612 600 624 424 760 616 608 600 588 612 608 420 760 620 596 588 420 764 616 616 596 592 620 604 416 764 632 604 436 764 628 596 612 420 768 612 620 604 600 608 612 596 416 772 624 604 612 420 776 624 620 592 592 616 416 764 620 616 416 752 620 596 416 768 608 596 416 776 608 608 596 588 604 420 756 604 616 596 580 596 416 756 600 608 436 744 612 420 756 608 600 416 740 612 600 412 744 612 580 416 748 608 580 420 760 596 584 412 760 596 580 412 768 600 596 416 760 596 596 416 740 612 600 420 748 612 584 412 752 604 584 424 764 604 592 416 760 600 600 420 752 612 604 420 748 616 592 416 756 608 588 424 768 596 584 420 760 596 584 424 760 596 604 420 744 592 604 592 584 600 420 756 604 600 592 584 592 416 752 608 600 424 736 616 596 416 740 620 584 416 760 608 584 412 756 608 596 428 756 612 608 416 740 616 596
03665 27904 0.0000 412 764 620 592 412 760 604 432 468 904 620 604 604 588 596 416 740 612 428 464 872 628 588 588 420 752 612 600 588 592 604 416 752 616 604 416 736 616 600 416 756 616 584 408 752 608 580 420 764 608 596 412 752 604 600 592 584 604 436 736 608 608 588 584 600 600 580 600 608 584 580 420 752 600 420 464 912 624 608 596 580 600 420 740 604 608 588 588 432 468 864 608 604 588 580 604 428 752 596 416 760 600 604 596 588 492 400 876 612 604 584 584 604 600 584 592 612 588 576 416 756 596 588 608 584 428 464 900 616 600 596 584 592 604 580 588 416 752 592 596 600 584 584 420 764 600 580 608 588 580 416 764 600 588 604 584 428 464 904 628 608 600 584 596 436 744 600 412 768 596 600 612 596 428 464 924 616 596 608 588 584 420 764 604 588 600 588 584 416 760 604 592 604 588 408 756 608 584 588 416 760 600 604 432 728 616 416 756 612 608 596 588 608 428 744 616 412 460 892 632 596 584 600 600 588 588 616 604 584 600 616 584 584 616 592 588 528 420 844 620 608 424 744 620 596 416 764 620 584 416 772 604 588 420 768 600
03665 28160 0.0000 596 612 588 584 420 764 600 592 612 592 592 424 760 604 588 608 584 592 416 760 604 592 608 576 584 608 592 584 412 776 592 584 464 728 596 412 764 608 588 416 764 604 428 460 868 616 412 760 604 612 592 576 600 432 736 600 420 764 604 600 608 576 588 416 760 608 424 468 876 616 404 764 604 600 600 588 588 608 416 744 612 440 460 856 624 608 584 588 604 584 580 408 772 608 432 468 872 608 600 596 580 600 604 588 596 608 588 584 424 756 600 592 620 416 756 612 428 464 876 628 616 588 596 612 608 584 588 608 416 740 620 616 428 740 620 592 412 752 616 592 424 756 612 584 416 752 604 592 612 596 592 416 768 600 604 608 584 596 612 596 440 468 916 620 600 604 600 592 420 772 608 436 464 948 636 608 612 604 596 416 760 600 600 600 416 748 620 432 460 880 620 588 588 416 764 608 600 444 732 612 600 424 748 616 424 468 880 624 592 592 604 584 412 764 624 588 600 608 600 584 592 608 596 580 612 608 600 584 416 756 608 600 608 600 596 420 760 600 424 460 880 628 608 592 596 592 416 756 608 588 412 764 608 592 420 756
03665 28416 0.0000 604 592 604 592 592 416 772 604 592 608 592 580 424 764 608 592 616 604 588 408 772 616 416 468 948 632 596 612 600 408 760 620 596 588 596 604 584 412 752 608 424 468 912 620 608 592 584 596 596 416 740 620 608 408 756 612 600 416 740 604 600 428 764 612 600 584 416 768 604 600 612 604 596 412 768 604 596 604 600 600 416 768 612 424 460 928 632 620 604 596 620 608 600 608 432 468 864 636 616 416 776 620 604 412 768 624 604 412 780 620 600 416 780 612 616 432 756 620 616 416 756 632 600 412 776 628 604 412 780 620 604 408 768 636 604 412 768 628 608 592 592 612 604 604 600 416 764 616 600 412 760 616 600 420 780 608 616 612 588 600 420 768 616 608 436 740 596 620 608 596 408 784 612 604 412 772 608 612 408 764 628 612 408 768 624 592 404 772 620 596 416 784 620 440 460 924 628 612 412 772 624 608 412 764 624 596 412 788 620 596 420 792 612 600 420 772 612 616 604 600 612 420 764 624 608 416 768 636 608 412 776 628 592 412 784 612 440 460 948 628 620 612 596 612 412 776 624 616 416 764 628 500 392 896 640 600
03665 28672 0.0000 412 784 620 592 416 784 608 604 416 788 608 608 600 596 608 412 768 636 616 412 768 628 592 412 780 628 592 416 780 612 604 412 764 616 436 460 888 632 600 416 764 616 588 416 780 608 596 420 772 604 608 504 684 616 416 784 612 616 596 596 608 416 764 608 448 460 924 640 612 596 608 608 424 768 620 616 608 616 620 628 632 632 424 844 648 504 392 1028 684 656 424 820 652 636 412 792 636 616 416 788 628 444 456 964 644 624 420 780 632 628 416 780 632 432 456 968 652 616 412 788 628 596 412 792 620 436 460 956 648 616 604 600 620 600 600 624 608 600 612 416 764 624 616 604 596 616 416 772 620 604 412 772 620 604 416 780 620 592 412 776 608 604 416 820 620 600 412 772 616 612 412 772 616 604 420 752 624 608 416 772 620 596 416 772 604 592 408 780 608 452 468 932 624 608 412 756 608 600 420 768 620 612 416 764 608 596 412 760 612 620 412 756 604 596 412 768 612 600 416 768 612 604 408 764 612 596 412 764 616 612 416 756 608 592 412 752 616 612 412 772 612 596 412 752 612 456 468 916 632 604 408 776 612 592 408 784
03665 28928 0.0000 616 596 412 772 604 604 412 784 616 612 416 760 620 516 396 932 516 712 720 692 456 460 960 652 624 416 796 636 440 456 956 632 620 416 780 620 440 460 936 624 612 412 768 620 608 412 772 612 592 416 760 612 592 420 780 608 600 412 784 612 608 416 776 624 608 420 756 616 592 420 772 612 600 424 784 612 608 420 768 624 616 420 764 624 600 416 768 616 604 412 796 612 612 416 772 628 612 416 772 632 604 420 776 620 452 468 916 640 628 604 416 788 624 600 620 420 776 636 612 600 420 788 616 616 608 416 788 468 752 624 608 600 412 784 616 608 420 776 632 540 392 912 640 608 600 420 780 620 608 592 412 776 608 540 404 900 632 616 412 768 624 536 396 900 620 616 416 804 632 472 464 920 644 608 412 784 604 468 464 904 644 616 412 772 624 540 396 896 628 612 608 420 764 624 584 420 764 616 588 420 820 616 608 416 760 616 600 416 772 616 584 416 816 480 720 612 596 604 420 772 632 460 460 924 632 596 412 796 608 604 420 816 624 480 476 920 644 600 416 788 604 608 416 816 632 604 612 612 612 416 768 620 600 416 792 552
03665 29184 0.0000 648 628 596 596 416 832 624 628 604 604 620 416 768 520 708 616 624 612 596 412 832 616 492 464 900 648 616 600 416 792 612 456 760 608 612 624 420 772 624 568 396 892 628 620 628 416 772 636 452 460 940 648 624 612 424 784 632 520 396 952 636 628 416 848 468 764 620 608 616 416 784 632 604 416 784 612 600 412 836 620 628 420 780 476 744 620 620 600 420 784 624 596 412 832 616 620 420 784 636 612 600 420 792 612 460 760 604 620 616 596 412 780 556 672 620 604 616 420 828 648 544 396 952 652 616 612 416 836 624 616 412 784 624 600 416 796 608 604 416 792 624 620 420 788 628 600 412 780 556 648 632 600 452 756 612 596 616 416 768 472 760 620 624 600 412 784 620 480 460 920 632 616 416 784 632 552 392 940 644 608 424 800 612 484 468 900 636 628 412 780 628 564 396 892 624 616 416 832 628 476 468 908 640 612 412 788 628 572 396 872 620 628 416 776 652 560 400 856 628 604 412 828 624 496 464 872 644 612 412 780 632 552 396 920 632 608 416 820 628 468 468 936 644 604 416 792 612 480 464 916 632 628 420 776 636 464
03665 29440 0.0000 460 892 632 604 420 800 496 696 640 600 612 420 800 624 448 460 904 644 608 412 796 628 460 476 940 628 616 420 788 632 468 472 940 644 604 416 784 620 460 468 936 632 632 616 596 616 416 800 460 772 624 600 612 416 776 640 448 468 972 632 608 416 840 628 448 464 976 648 612 604 416 800 624 628 604 420 796 620 592 416 840 624 456 464 968 660 604 612 416 808 624 632 604 600 636 420 780 640 616 412 784 644 608 416 788 452 760 644 604 604 424 808 428 796 620 604 628 412 792 644 624 612 416 804 612 460 464 944 652 632 416 784 640 440 468 972 644 624 416 848 628 508 392 980 660 612 604 424 852 628 440 788 620 608 628 416 784 636 440 464 976 632 624 424 804 636 440 460 988 644 608 604 416 824 628 452 756 620 628 612 600 416 844 620 508 396 960 640 620 608 416 808 620 444 464 948 628 632 604 612 632 420 784 640 624 604 420 804 624 448 464 956 640 624 608 416 804 632 448 468 956 636 620 620 416 792 640 452 468 968 628 612 416 840 636 440 464 984 640 636 604 604 640 620 612 628 628 600 612 632 608 608 420 832 628 632
03665 29696 0.0000 612 612 456 772 640 640 608 412 808 624 608 408 816 628 632 620 604 628 408 792 640 628 412 792 648 448 764 656 624 604 628 420 804 636 448 460 996 652 604 620 416 812 636 512 392 928 652 628 412 804 636 616 408 828 624 616 416 816 624 632 612 608 624 612 596 624 632 600 620 424 804 624 628 604 608 628 616 608 632 624 604 628 416 812 640 644 620 608 644 416 796 652 624 608 416 840 624 620 620 604 448 464 936 648 636 416 788 652 608 604 416 824 620 624 628 604 440 460 920 636 628 612 612 632 616 600 632 620 604 620 424 808 624 448 468 912 648 624 412 800 632 444 464 972 628 624 416 804 624 628 616 596 620 416 792 624 512 400 928 640 632 596 600 632 616 600 624 628 604 604 412 804 624 628 612 608 460 456 916 640 620 604 616 636 416 792 640 604 412 788 628 608 416 808 628 440 460 928 652 624 412 792 624 432 460 928 636 616 596 616 632 420 776 648 608 404 800 624 440 464 976 640 632 616 600 464 460 916 636 636 608 604 628 616 596 624 624 608 612 420 812 624 620 632 608 608 420 824 628 632 620 612 624 412 812 636
03665 29952 0.0000 632 616 612 628 628 608 624 416 828 640 508 400 944 652 640 608 612 448 796 628 632 628 416 800 644 476 464 904 640 604 412 816 624 432 468 992 648 632 608 608 636 620 608 628 636 608 624 632 600 612 416 812 652 624 408 812 632 604 416 816 632 444 460 952 648 620 412 804 640 436 464 1012 636 612 412 832 628 496 404 964 636 640 612 604 456 460 940 652 636 420 796 644 436 460 940 644 612 416 816 628 432 464 996 640 632 632 604 608 632 616 600 620 416 812 632 640 608 600 624 628 384 816 648 620 444 784 636 608 620 628 612 620 420 808 636 632 604 612 640 624 608 636 632 608 628 416 816 644 636 620 416 824 640 616 412 828 636 624 424 812 644 640 408 800 656 620 612 412 836 628 500 392 996 636 636 624 616 440 460 948 644 624 604 616 640 612 612 632 620 604 616 508 728 632 424 844 624 632 628 608 612 640 620 608 416 828 628 612 240 1004 624 432 464 948 636 628 608 608 628 624 608 620 424 812 628 500 396 944 644 636 620 608 636 616 600 632 624 608 632 440 784 636 412 808 636 632 616 616 632 620 604 612 412 820 628 636
03665 30208 0.0000 628 608 616 416 820 628 636 436 788 640 440 460 936 648 616 604 636 628 420 800 636 608 412 812 624 620 420 828 636 500 392 964 644 640 620 612 656 620 616 624 640 608 448 460 956 644 636 636 608 616 640 624 616 636 412 816 640 624 608 624 444 776 644 632 600 408 816 628 444 464 944 632 632 624 604 624 620 616 612 640 412 816 652 632 616 616 644 628 616 644 504 724 636 412 832 632 636 640 608 612 416 824 624 636 632 608 440 460 960 628 632 620 612 636 636 616 448 456 992 644 636 632 616 620 412 828 632 628 624 608 624 636 612 620 644 416 808 648 640 612 616 644 628 604 624 636 612 612 416 836 632 640 628 608 628 628 620 616 412 848 640 632 636 612 620 408 844 640 444 456 1000 644 640 612 616 512 748 632 636 620 408 812 596 512 388 1024 640 612 624 608 436 788 640 620 632 636 612 620 640 476 756 424 848 632 404 852 624 616 436 808 632 636 636 612 604 412 836 632 500 392 976 652 628 612 612 632 612 620 640 628 616 448 780 628 600 612 420 820 640 636 628 612 460 796 628 620 652 628 612 636 640 612 620 652 624 620
03665 30464 0.0000 412 856 644 632 640 620 640 412 844 640 636 616 612 636 408 820 644 640 612 612 448 800 632 644 632 612 416 844 632 624 628 620 612 412 840 632 608 648 612 632 624 608 632 640 600 608 644 412 792 652 636 616 612 640 624 604 628 624 616 636 628 620 628 632 612 620 412 820 636 636 636 608 616 412 832 624 620 416 840 636 640 620 608 636 632 608 620 652 416 804 652 456 460 940 660 620 620 404 832 640 444 452 956 660 640 620 616 640 620 616 636 640 612 624 424 828 636 644 628 612 636 648 616 620 640 420 808 656 628 620 636 632 412 808 640 608 620 416 824 640 644 624 604 628 632 608 616 420 824 632 632 628 612 616 636 616 644 420 804 632 612 624 620 632 616 616 640 628 612 632 636 620 624 648 624 624 412 852 632 632 420 824 656 648 420 824 656 628 620 420 836 636 644 428 796 644 448 460 948 668 628 412 828 648 436 456 1044 656 624 652 632 464 780 644 620 628 636 620 628 412 840 452 812 632 616 644 636 608 624 632 608 608 416 832 636 448 796 644 624 608 412 820 632 544 392 980 640 628 636 604 620 640 616 612 416 832
03665 30720 0.0000 632 620 636 616 616 416 844 640 628 628 608 628 620 612 624 628 596 612 624 596 604 608 620 624 612 608 612 612 516 700 424 792 636 620 608 600 612 612 604 620 616 608 628 624 600 612 412 816 628 448 796 620 624 628 604 608 632 616 612 468 468 960 628 640 616 608 628 632 620 608 452 788 624 620 636 620 616 632 624 612 404 828 632 444 460 1004 652 628 632 608 616 632 628 616 420 820 636 480 460 984 648 636 640 612 620 632 612 604 412 828 620 512 400 984 644 624 608 624 624 612 628 444 456 932 656 620 604 636 636 612 620 632 604 608 436 796 628 640 624 616 632 628 616 616 644 420 808 656 628 420 800 648 452 460 1016 644 620 412 864 632 444 460 964 652 632 412 816 636 444 468 1004 652 628 416 856 636 448 456 988 656 636 608 624 636 608 600 636 628 608 624 636 620 612 408 848 636 636 452 468 992 648 616 612 416 824 632 460 464 976 648 616 412 788 632 512 392 980 656 624 612 608 448 460 964 652 632 608 604 636 628 608 624 640 612 620 636 612 608 476 768 628 628 420 824 644 508 388 968 660 624 412 832 640 448 456 1016
03665 30976 0.0000 656 636 636 620 628 628 620 588 656 620 628 624 416 832 644 440 456 1032 652 628 416 864 636 444 796 624 628 616 416 828 624 620 420 836 632 640 628 608 632 640 616 608 636 616 612 628 420 804 456 792 624 616 628 628 612 612 420 804 632 608 408 812 628 448 464 972 640 632 608 604 628 612 604 620 620 600 612 620 600 600 624 608 608 412 812 620 440 460 952 640 632 616 612 624 620 604 612 464 752 620 416 556 872 628 448 464 944 652 620 416 792 632 444 456 968 640 628 632 612 612 416 836 628 448 456 972 656 636 608 604 632 620 604 608 472 460 960 644 624 596 600 624 620 600 616 628 604 600 408 840 460 772 640 616 608 412 848 632 620 632 612 620 464 460 972 632 636 624 612 624 628 616 620 632 416 796 644 628 608 620 480 752 620 624 624 604 608 644 628 612 620 632 604 604 640 420 792 644 460 460 952 648 628 604 416 812 628 608 416 832 464 768 632 612 628 620 604 604 620 412 780 644 620 604 608 628 612 596 612 416 836 628 624 472 744 616 416 836 616 460 464 968 632 452 456 960 648 448 464 956 660 456 460 976 648 452
03665 31232 0.0000 456 1004 644 452 460 992 636 440 464 976 648 456 460 984 648 628 604 612 644 612 612 620 444 784 624 620 632 616 612 632 616 604 624 416 796 636 460 468 964 660 628 412 796 660 452 464 1000 652 612 612 416 848 628 636 628 612 612 416 816 620 628 616 616 620 416 808 624 620 624 604 616 420 816 636 628 628 604 616 420 844 636 488 464 928 648 628 608 620 640 620 608 632 628 608 620 628 612 624 632 612 628 628 604 608 636 624 416 800 644 444 460 920 636 604 420 824 624 452 468 972 636 632 632 608 556 400 940 636 632 616 616 616 632 616 620 416 840 628 632 628 608 612 420 848 632 636 616 608 632 636 612 616 644 612 608 420 852 640 648 432 804 716 640 620 624 412 868 644 644 620 616 640 612 612 636 456 764 652 428 808 624 452 464 964 648 632 612 612 624 604 612 632 448 772 644 420 812 624 628 612 604 624 448 780 632 632 612 600 632 468 760 640 640 612 416 800 648 508 396 996 652 612 420 816 624 436 464 976 644 632 632 612 604 412 848 632 620 636 612 464 464 972 628 612 628 628 612 420 812 628 444 464 992 648 632 632
03665 31488 0.0000 612 616 624 608 608 420 824 632 512 400 416 1176 1428 800 448 920 648 636 424 864 636 648 424 816 660 640 416 816 648 520 396 1024 656 628 644 616 612 416 832 628 620 644 628 620 420 828 628 632 648 620 620 428 860 640 644 428 828 644 652 424 808 664 636 420 804 664 640 620 420 840 640 616 416 884 648 636 424 828 648 636 416 812 660 516 400 1032 664 620 628 416 868 652 452 464 992 656 644 612 616 652 640 616 624 648 616 612 408 880 640 440 468 1028 708 648 416 800 664 444 468 1020 668 624 608 636 640 616 624 640 620 616 456 460 976 660 640 420 816 652 436 460 1028 656 624 420 844 636 440 468 1016 660 652 424 820 644 448 460 996 656 640 616 628 648 624 608 640 628 616 620 644 628 620 416 828 632 628 644 616 628 416 876 640 624 420 828 644 636 428 832 640 636 424 804 664 624 424 812 640 612 416 812 628 440 468 1008 656 644 420 816 644 448 468 1012 664 628 432 816 640 624 420 832 640 628 424 852 636 640 424 808 648 648 424 796 660 624 420 800 656 616 420 820 640 456 456 976 648 640 424 820 648 632 424 796 652 640 424 808
03665 31744 0.0000 664 632 420 820 636 612 424 832 640 620 428 868 640 644 420 820 660 644 428 800 656 628 616 416 864 644 636 416 808 644 628 416 812 656 628 420 820 652 616 620 416 872 644 636 640 612 616 420 860 644 636 648 620 616 416 880 640 620 428 856 640 640 428 796 636 636 428 804 656 640 424 792 660 636 412 812 664 628 616 416 868 632 500 396 1008 660 644 428 804 652 616 624 420 868 652 632 428 856 640 628 388 908 660 624 616 420 864 632 640 432 812 660 640 424 812 648 620 420 840 648 628 424 852 636 632 424 840 652 656 424 816 664 640 412 816 660 628 624 416 872 632 616 412 864 644 636 424 796 652 620 416 812 644 620 420 836 632 620 416 840 632 628 416 868 648 644 424 800 664 516 400 1020 672 620 616 416 868 636 444 468 1024 648 648 624 616 636 632 616 624 420 860 640 500 392 1036 660 620 648 632 636 424 824 740 640 628 636 420 868 640 640 424 812 644 632 436 828 656 628 616 412 868 640 636 644 612 616 412 868 640 636 644 624 616 640 416 860 640 644 628 628 640 632 620 632 632 616 620 420 868 644 640 632 612 624 412 876
03665 32000 0.0000 656 516 400 1024 656 652 620 416 840 660 448 464 1032 648 624 656 416 816 724 516 736 708 648 616 416 832 644 520 396 1020 648 620 636 416 808 656 624 424 880 652 632 416 840 636 440 468 1000 656 632 416 820 640 440 472 1004 716 648 620 624 420 868 644 632 612 416 816 640 460 468 980 656 640 616 416 816 648 452 460 1024 644 624 644 416 816 664 452 468 1028 660 624 632 412 840 656 516 400 992 660 624 612 420 860 632 516 404 996 648 644 616 612 640 640 612 620 416 864 640 436 464 1028 664 644 616 628 416 856 648 624 632 628 644 616 412 816 648 432 468 1028 644 616 648 420 808 656 460 468 1020 664 620 624 412 880 648 444 860 644 652 620 620 648 640 616 624 424 872 636 652 624 416 824 652 624 636 420 856 644 636 616 420 828 640 620 412 864 636 636 416 868 648 648 616 412 828 648 456 464 1024 656 644 632 612 484 460 976 672 640 624 648 640 612 624 428 868 640 512 400 1012 652 648 620 620 456 472 1008 660 640 612 624 636 620 620 420 876 640 436 464 1024 660 644 628 616 420 872 636 640 416 860 656 452 464 1004 668 628 616 632 424
03665 32256 0.0000 864 648 636 628 416 820 648 616 620 420 864 632 636 632 416 816 656 616 624 416 872 640 452 460 1012 652 644 620 620 632 420 872 648 656 628 624 468 784 640 632 648 616 628 652 640 440 792 660 616 624 652 640 612 640 632 624 640 624 620 644 636 620 620 420 864 644 640 416 820 716 640 608 416 868 632 628 648 416 792 664 460 464 996 668 628 636 416 836 636 444 460 1020 664 640 628 420 872 636 504 400 1000 660 648 400 816 424 876 636 640 624 416 828 644 616 636 416 824 728 520 396 1048 672 612 624 424 876 652 452 464 1008 668 632 620 636 424 844 644 640 628 620 640 644 628 628 416 908 644 648 428 816 564 432 468 1064 656 608 616 416 868 640 512 404 1008 652 428 812 632 640 620 616 420 876 640 632 628 416 840 652 620 636 420 820 648 644 616 616 656 628 612 648 632 616 640 636 616 652 632 616 640 412 824 728 520 756 428 860 636 620 652 420 820 668 516 400 1040 668 624 636 416 852 652 504 396 996 660 640 624 628 508 772 644 648 628 412 824 652 444 468 1032 648 624 644 420 820 720 520 748 652 640 620 408 836 660 448 468 1040
03665 32512 0.0000 652 628 644 620 624 416 888 648 648 640 616 452 804 640 632 648 644 612 620 644 616 620 420 880 636 636 644 608 612 416 884 632 640 424 828 704 644 624 416 832 660 624 632 408 832 636 632 640 424 808 676 512 400 1012 660 624 620 420 876 644 504 388 1024 648 644 624 628 504 392 1016 644 640 616 624 512 400 1024 644 644 620 612 512 396 1016 656 648 608 616 640 636 616 632 424 880 636 644 632 612 636 652 620 620 416 884 636 628 652 420 816 664 644 612 412 828 648 448 464 1056 648 620 416 884 640 632 420 844 644 648 424 812 716 648 632 620 416 880 640 508 396 1004 660 644 624 628 492 396 980 652 640 612 632 644 628 616 640 636 608 628 420 884 644 640 640 612 616 644 420 836 652 648 632 612 632 420 836 644 652 652 624 624 416 896 644 648 408 872 640 648 636 612 632 640 616 616 428 832 632 632 628 616 636 644 620 636 416 840 644 648 628 624 648 416 836 648 640 408 820 668 648 456 468 360 412 1488 1252 1192 960 668 648 656 624 624 412 880 648 644 636 604 492 396 1036 648 644 628 624 640 636 616 620 416 888 644 636 644 620 624
03665 32768 0.0000 640 416 884 656 648 640 620 628 416 876 652 648 420 880 648 648 632 624 640 420 876 648 500 396 1024 656 640 412 824 736 632 624 636 416 828 716 652 628 624 424 876 640 444 472 1028 652 660 624 624 652 640 616 636 424 852 640 644 416 832 636 648 644 416 836 664 504 400 1040 668 628 632 648 644 620 636 420 848 644 480 472 1008 640 652 636 620 508 760 648 628 636 416 840 644 644 424 824 668 636 624 412 888 652 632 656 416 832 664 496 400 1032 668 628 628 656 636 620 632 420 848 644 644 420 844 640 632 416 836 648 644 428 824 652 636 620 616 424 840 640 628 640 420 816 640 508 400 1024 656 644 628 612 512 396 1012 652 644 628 632 624 412 852 636 624 416 840 648 636 628 616 636 636 624 628 424 868 644 648 632 612 644 428 828 644 648 636 616 648 652 624 628 420 868 644 644 424 836 724 660 636 412 840 660 620 644 412 848 644 644 412 824 720 644 624 632 424 836 640 640 412 820 656 636 620 624 416 872 636 640 420 824 640 652 632 412 828 660 612 620 428 884 644 648 420 820 708 648 628 644 424 840 712 644 628 616 416 876 644
03665 33024 0.0000 644 636 616 628 420 868 652 652 648 616 640 408 840 644 648 420 832 664 636 620 412 876 640 644 640 628 644 412 852 660 656 408 852 740 664 632 640 416 864 664 660 432 832 748 656 628 660 420 860 724 676 640 404 860 664 628 628 428 876 652 644 416 836 668 648 640 652 420 848 724 652 628 640 420 900 648 640 424 836 648 648 628 420 844 648 616 408 848 628 628 416 904 640 648 432 820 652 660 412 832 664 624 636 412 820 644 636 624 632 652 624 616 644 636 616 644 424 852 648 652 428 812 724 656 640 640 416 824 648 608 416 836 640 624 424 896 640 640 648 620 416 852 648 620 384 936 660 652 408 844 668 624 636 416 888 648 656 644 636 664 660 628 640 416 864 660 652 640 424 840 644 632 644 616 512 408 1036 664 648 644 616 704 668 644 712 676 636 632 660 636 636 416 912 656 640 412 864 648 656 416 852 744 648 632 636 412 896 656 656 416 844 676 624 624 660 420 832 732 664 624 408 848 648 620 660 632 420 836 644 624 416 892 656 648 428 844 656 644 624 632 412 896 656 652 648 412 832 660 632 628 652 420 832 712 644 624
03665 33280 0.0000 408 844 664 628 632 416 884 644 648 640 628 420 848 644 620 640 420 840 712 660 636 424 844 644 624 416 900 652 648 652 412 836 732 508 396 1076 664 628 632 412 880 648 436 836 648 660 636 624 636 420 840 644 656 416 828 660 632 616 416 872 652 640 644 616 624 420 876 424 868 652 632 652 416 840 656 652 624 416 848 664 616 624 420 880 644 504 400 1040 672 644 624 640 500 772 700 656 652 624 640 644 632 628 412 904 648 636 408 888 652 644 420 852 656 644 416 828 652 632 416 836 652 620 636 420 860 652 644 624 628 436 464 1008 664 652 624 644 512 404 1052 652 624 624 412 884 652 512 400 1028 660 640 616 640 644 620 624 420 876 644 652 640 628 512 400 1008 652 652 628 624 504 396 1028 676 644 632 636 412 864 660 652 636 632 460 812 644 644 380 944 660 660 640 624 716 664 632 640 420 928 652 656 660 628 504 780 664 628 652 652 624 640 528 760 724 424 884 644 652 652 632 644 420 860 656 496 388 1008 672 652 632 632 648 636 620 648 648 628 640 424 904 652 648 640 620 652 648 616 632 416 884 640 652 640 624 652 516 752 636
03665 33536 0.0000 648 416 820 652 656 628 412 832 656 620 624 416 896 640 640 652 420 816 652 652 636 624 644 644 608 612 420 832 624 648 644 628 640 648 624 632 412 876 652 652 640 628 648 640 628 640 416 868 660 448 460 988 664 644 628 636 420 884 640 632 416 892 652 656 424 832 668 644 620 412 860 656 508 400 1032 652 636 404 912 652 652 652 624 624 408 888 648 648 648 628 624 416 880 640 636 640 624 640 640 628 620 416 876 648 644 644 628 624 416 876 644 512 396 1032 660 648 632 620 640 640 620 628 420 888 648 632 420 880 648 648 416 884 648 644 408 820 660 648 412 832 664 632 416 816 656 640 624 628 420 888 648 636 640 416 828 668 644 628 416 836 644 628 644 420 840 664 648 620 412 836 660 500 400 1060 648 628 652 416 832 656 512 404 1048 664 652 412 824 740 524 1364 1252 748 664 664 632 492 400 1032 656 652 636 620 648 656 632 636 412 896 640 644 648 632 636 416 896 652 436 456 1024 672 648 632 420 844 652 504 400 1056 660 656 648 628 628 412 896 656 368 976 652 512 404 1052 664 660 652 628 496 784 644 628 652 420 888 660 376 952
03665 33792 0.0000 656 644 660 416 840 736 512 396 1012 680 632 636 656 420 840 652 652 636 412 836 676 628 628 428 900 640 636 660 416 828 736 656 628 620 416 896 644 664 652 412 832 668 504 396 1048 668 632 644 660 632 624 412 868 640 628 648 428 848 652 500 396 1004 664 664 648 616 500 400 1040 656 640 628 632 420 868 648 436 464 1024 672 640 628 640 412 840 648 384 924 652 652 636 624 512 400 1024 652 656 640 620 420 900 640 512 400 1048 652 656 640 620 628 420 872 648 652 644 628 488 392 1060 648 648 652 632 488 396 1032 652 624 656 644 620 644 632 620 636 628 628 628 652 640 508 732 636 652 640 412 860 668 632 640 648 420 828 748 656 644 412 908 652 648 632 420 864 652 508 400 1044 648 652 636 632 656 420 840 680 632 636 420 908 664 668 416 844 728 652 636 640 432 880 652 664 420 852 732 668 640 416 932 656 636 412 920 664 664 656 636 652 416 844 672 652 632 424 972 656 652 416 856 728 668 628 416 860 652 624 648 424 848 672 660 628 640 416 844 656 652 632 420 856 656 500 404 1008 656 656 656 628 664 652 632 660 652 640 660 648 640
03665 34048 0.0000 416 864 648 644 416 876 712 668 640 636 416 868 660 660 424 848 724 656 628 636 416 872 648 660 648 412 844 656 640 656 420 860 656 648 624 416 848 660 632 664 420 848 720 660 632 624 424 864 644 640 644 620 624 424 816 648 620 632 420 868 648 652 420 848 676 652 624 416 892 648 632 416 884 656 644 624 416 836 652 632 644 412 852 644 648 632 628 424 896 652 648 412 844 664 652 632 632 416 908 640 636 656 412 828 676 648 624 412 848 656 620 648 420 852 656 652 420 828 668 652 416 840 672 632 420 852 656 632 660 420 856 668 648 628 416 848 648 636 656 420 836 656 644 416 828 680 644 416 840 672 624 632 412 904 652 664 648 624 412 904 644 640 420 872 644 656 412 840 652 648 420 836 652 628 620 416 868 648 648 428 872 668 648 624 416 856 648 632 656 412 848 660 628 632 416 900 656 376 944 656 636 648 416 848 736 652 392 916 668 632 636 424 900 648 648 632 616 420 892 652 384 952 652 632 652 420 832 672 508 400 1068 672 628 632 652 636 636 420 900 648 624 412 896 660 648 648 632 424 840 644 628 644 420 836 724 652
03665 34304 0.0000 628 632 420 840 692 660 424 884 656 652 632 628 648 424 888 660 652 416 832 664 648 624 644 424 900 644 636 656 416 844 676 652 620 628 420 880 648 648 424 888 660 384 932 652 644 652 628 628 432 888 640 632 420 884 648 656 420 832 708 652 620 624 420 912 648 632 656 420 836 652 652 424 828 664 648 620 624 420 896 644 372 968 648 624 652 416 840 672 652 624 624 416 896 648 440 464 1064 656 648 640 612 636 636 420 832 656 632 636 416 876 656 652 420 848 672 648 628 632 496 776 652 636 660 416 852 716 656 368 904 684 652 636 640 656 636 412 860 672 636 644 656 632 420 852 668 636 644 420 900 656 652 628 632 424 900 656 644 416 856 640 652 416 840 672 632 632 416 880 648 632 416 900 652 644 412 844 656 644 628 420 848 656 436 472 1040 652 636 660 416 828 712 644 624 636 420 888 644 640 416 876 652 656 416 828 728 656 624 416 844 652 628 660 424 856 652 652 640 620 504 404 1020 668 656 636 628 648 428 852 656 652 420 844 720 656 636 632 416 916 652 640 416 856 648 652 424 840 724 660 632 628 420 900 660 360 948 656
03665 34560 0.0000 644 628 620 420 888 652 644 416 880 648 656 640 624 656 428 844 648 652 416 828 732 664 628 636 416 900 652 648 424 904 660 656 632 632 412 900 652 380 940 652 632 648 632 632 420 900 652 636 416 892 652 372 932 664 652 652 416 836 668 636 632 660 416 852 656 652 632 416 860 664 632 644 656 416 840 716 652 632 644 428 904 652 644 420 896 664 660 652 632 644 416 892 656 648 660 420 852 728 648 1248 668 632 632 656 416 828 660 604 380 948 672 628 632 648 636 412 836 672 632 640 416 908 656 648 648 628 416 912 660 640 656 636 640 416 916 668 660 416 864 660 652 640 644 420 924 652 504 396 1020 672 660 648 628 652 424 848 652 632 648 420 908 664 656 640 632 648 416 860 660 656 416 852 732 656 632 420 932 652 648 660 408 856 736 660 636 652 428 844 648 656 412 840 740 652 632 412 904 656 656 652 636 436 460 1028 680 644 632 652 416 860 664 652 628 412 848 660 628 652 652 628 412 848 652 628 416 904 656 648 644 628 416 900 652 652 656 632 420 852 644 632 664 424 844 728 656 628 416 916 656 644 672 644 628 416 900 656
03665 34816 0.0000 652 652 636 416 900 648 652 648 628 444 840 648 632 656 632 632 420 924 656 660 420 856 712 660 644 644 416 916 656 652 656 640 412 880 656 504 392 1012 668 644 628 640 668 640 636 420 908 652 656 652 632 496 788 644 636 648 632 632 420 860 652 492 392 1008 664 640 632 652 648 628 412 860 640 632 416 908 656 660 416 840 680 644 632 424 908 660 648 648 628 648 420 856 668 652 408 844 680 624 628 664 424 840 716 652 628 416 860 664 636 708 424 864 648 648 644 416 840 664 632 420 840 648 624 420 904 660 600 680 640 416 860 648 640 668 648 500 400 1028 656 640 668 648 632 416 900 648 648 416 864 732 656 636 700 660 640 640 420 928 668 660 652 640 664 412 884 736 668 644 652 660 416 860 760 660 660 416 932 660 712 672 648 664 424 880 724 676 644 644 420 940 672 664 640 644 660 412 868 692 636 652 660 416 840 684 640 640 420 920 656 656 648 632 652 420 868 668 652 632 416 848 652 640 664 420 840 668 644 628 416 860 644 632 652 420 828 680 648 636 656 420 848 664 648 636 412 856 656 636 420 904 656 660 652 636 420 916
03665 35072 0.0000 652 644 656 628 420 860 664 632 420 908 648 640 424 856 660 656 632 628 416 884 656 656 640 636 648 412 844 656 640 624 424 860 660 628 652 420 848 664 656 632 420 876 652 632 412 912 660 656 420 876 660 656 632 640 420 904 664 656 416 856 744 656 640 656 428 860 668 660 632 636 424 868 660 652 648 620 644 428 860 708 660 424 904 644 644 648 416 852 664 652 620 416 852 640 640 656 644 644 420 868 664 656 644 636 664 420 852 744 648 648 676 420 868 752 664 644 412 932 656 648 420 896 668 656 644 416 876 664 656 668 416 864 752 652 656 672 420 864 704 640 632 412 916 660 664 652 640 664 416 852 684 652 644 668 420 860 736 388 908 684 664 644 644 664 636 636 420 832 728 648 636 420 888 644 644 652 628 644 424 896 656 380 940 672 660 640 636 420 908 660 652 632 644 664 640 636 664 628 636 660 644 636 664 644 632 656 640 636 664 644 640 660 640 632 660 640 632 664 640 632 652 636 632 416 912 664 660 644 640 420 908 672 676 648 640 420 920 656 668 644 420 860 664 640 652 412 852 672 648 632 416 900 644 640 644 408
03665 35328 0.0000 844 660 628 636 416 876 648 640 636 416 892 656 640 640 616 640 648 616 644 648 632 636 416 880 648 656 632 640 416 884 656 648 640 420 844 664 628 648 416 876 652 376 944 652 656 636 624 416 888 656 648 636 640 420 880 660 648 416 840 676 640 624 416 892 648 644 632 628 452 464 1016 664 636 628 640 420 872 672 640 616 412 892 652 696 664 628 516 396 1056 660 656 652 636 628 420 904 656 412 956 676 712 656 652 632 652 636 640 420 912 664 664 412 892 676 660 632 416 988 656 644 412 928 660 656 676 652 412 940 664 644 664 664 636 412 928 656 508 396 1036 668 652 648 632 420 904 656 644 416 904 668 656 636 628 420 888 660 660 648 632 416 920 652 640 668 420 844 676 636 632 412 900 656 656 424 912 664 628 640 420 888 664 656 624 420 880 648 636 420 888 672 648 416 900 656 628 716 652 504 824 664 628 644 644 416 892 672 628 416 884 644 648 412 884 668 652 624 624 648 416 868 664 652 412 876 664 628 624 420 892 656 652 420 880 660 624 636 412 888 656 656 412 860 668 632 628 416 884 648 648 420 860 660 640 636 648 424
03665 35584 0.0000 872 660 400 888 664 644 624 452 460 1024 652 648 628 616 420 876 652 640 632 620 644 416 868 676 628 620 644 420 856 660 448 468 1456 244 1076 1216 1192 1096 856 664 644 664 640 624 640 644 616 412 896 648 620 644 636 416 880 652 676 648 644 420 892 660 632 692 420 884 668 656 636 636 428 884 656 664 644 636 420 984 700 676 644 628 660 420 888 676 636 628 700 648 632 424 904 656 628 644 416 864 660 652 624 628 428 872 644 648 420 872 664 644 632 420 880 648 640 420 864 660 636 624 628 416 864 656 660 628 620 428 872 644 644 632 428 896 652 632 420 872 656 652 420 872 680 648 620 412 944 660 692 656 632 624 420 880 652 644 636 424 888 644 632 644 416 860 676 644 628 420 948 648 700 656 632 700 660 420 876 668 624 636 416 892 652 652 632 624 416 892 664 660 636 624 424 876 640 648 644 420 896 656 632 644 640 424 868 668 632 632 424 872 648 660 624 628 664 632 412 896 656 636 656 648 424 844 656 632 648 420 876 676 644 620 632 420 872 648 652 424 864 672 648 612 624 428 868 644 652 424 864 656 648 624 416 840 664 628
03665 35840 0.0000 628 420 872 648 640 636 420 844 648 628 644 416 856 668 636 624 420 880 632 632 644 420 856 660 640 620 416 880 652 620 700 424 884 652 652 636 620 424 896 660 652 656 416 892 660 440 484 1068 660 640 652 632 424 820 652 620 648 424 868 652 500 396 1036 680 644 628 652 428 816 724 652 640 652 416 888 660 648 628 636 424 892 664 652 420 868 672 648 408 916 676 632 700 652 500 400 1056 664 632 644 644 624 644 420 880 664 652 632 624 420 880 652 652 636 628 424 880 644 640 424 868 660 648 624 412 844 652 624 660 652 424 888 660 628 632 416 892 676 636 624 712 420 896 664 656 640 416 924 656 644 412 892 672 652 640 416 976 660 708 656 628 704 424 908 664 660 632 412 972 676 652 420 904 668 648 632 652 424 892 684 644 632 416 900 660 664 644 632 420 892 660 656 636 640 424 896 660 1312 656 660 640 640 516 804 656 648 628 636 664 620 632 420 868 656 652 628 424 900 656 692 648 632 416 948 656 648 656 620 416 904 652 632 660 428 868 664 624 632 420 880 660 648 628 632 648 624 624 424 888 648 712 424 880 668 648 632 420
03665 36096 0.0000 964 664 636 420 872 656 648 632 696 424 896 668 652 624 640 424 900 652 656 420 860 664 652 632 640 428 896 644 660 628 420 904 656 640 656 412 876 664 624 688 660 508 800 664 624 636 648 636 632 424 904 652 640 416 876 680 636 624 664 416 864 676 644 628 708 664 620 640 504 776 700 652 636 636 656 416 844 640 616 424 896 644 624 644 424 856 656 648 416 836 648 628 624 416 864 696 644 644 668 648 420 868 664 636 628 636 420 876 644 652 636 624 416 972 668 696 668 632 648 420 908 656 656 640 636 412 900 664 660 644 640 420 892 656 660 632 628 420 896 652 648 636 624 424 888 672 660 420 884 676 632 640 424 904 680 656 632 648 416 892 676 652 640 688 656 420 880 672 648 632 692 652 632 684 656 632 684 668 636 644 660 632 412 920 660 640 660 648 416 856 652 636 656 420 892 676 648 404 912 672 636 648 420 900 652 1320 664 660 640 636 464 836 664 648 624 704 664 632 636 420 888 652 660 636 628 416 896 652 640 420 880 664 644 632 696 636 620 692 644 620 644 656 416 868 668 636 624 648 652 624 472 432 1048 724 652 636
03665 36352 0.0000 648 660 636 640 424 880 656 664 632 636 424 916 652 656 636 636 420 904 660 652 640 628 416 892 660 664 412 892 1452 1192 968 888 844 660 656 664 644 636 664 644 416 852 656 632 652 420 888 668 492 808 656 648 644 628 712 648 628 692 656 624 644 660 636 636 420 900 652 652 640 628 428 900 668 648 628 640 420 908 660 652 648 620 416 948 656 648 652 636 416 896 660 632 660 644 420 904 660 632 700 656 644 424 928 660 656 664 640 420 928 668 652 680 648 412 928 676 640 728 672 640 416 932 656 696 680 648 428 924 668 648 408 924 668 668 652 644 416 904 656 656 644 632 424 904 648 644 640 628 420 892 664 504 804 652 660 644 628 716 652 632 652 420 888 660 660 636 648 420 900 656 648 640 700 660 644 648 652 632 412 880 652 636 664 648 412 912 664 632 656 652 420 844 656 628 636 412 880 668 644 628 420 876 644 648 648 632 420 960 660 684 656 632 416 908 664 652 416 888 672 648 640 692 668 644 632 664 416 880 680 660 640 664 652 636 700 656 644 644 656 424 892 684 648 644 656 420 864 680 644 632 412 900 664 664 660 632
03665 36608 0.0000 416 904 656 652 644 652 420 888 668 648 632 624 428 884 652 640 640 416 876 656 636 420 892 664 644 624 412 916 652 640 420 908 652 656 640 632 420 924 656 656 412 892 668 648 632 644 416 900 660 652 640 628 424 960 656 696 656 624 412 920 664 440 468 1040 664 648 652 636 696 664 644 704 660 636 692 660 644 652 660 640 640 416 908 660 668 652 636 736 652 632 732 660 640 728 668 644 724 652 644 716 664 648 708 660 632 704 652 632 712 660 636 640 660 640 636 664 656 636 668 656 632 652 660 640 420 912 664 660 640 640 416 912 660 664 644 408 852 672 632 704 672 644 412 924 656 640 652 416 900 668 656 632 416 960 660 700 664 636 416 972 648 648 668 636 428 924 668 632 660 648 416 904 684 496 400 1024 664 632 656 652 640 416 896 664 688 652 640 500 400 1068 720 660 640 640 672 640 636 420 904 656 656 644 632 416 928 668 692 648 636 692 644 640 696 652 632 636 656 416 888 684 648 636 652 644 624 696 664 640 692 672 644 688 664 656 644 668 424 920 728 660 640 660 412 932 676 660 648 644 664 412 912 696 656 640 648 412
03665 36864 0.0000 916 668 668 652 644 424 932 660 660 660 648 416 932 664 656 648 640 416 920 676 668 640 636 416 912 660 668 652 636 416 924 656 500 396 1032 680 664 636 640 660 640 644 420 916 664 664 644 632 420 1004 664 656 672 624 416 872 648 636 420 924 664 668 644 632 420 896 660 660 636 632 416 888 652 660 644 412 912 660 632 660 636 420 856 656 640 412 892 652 652 648 416 888 664 628 692 420 884 664 652 628 420 876 652 628 644 640 636 420 896 656 648 644 628 700 652 508 764 676 384 904 680 652 636 664 656 624 652 656 632 652 656 644 632 656 640 412 860 664 640 672 656 420 904 664 632 644 420 908 656 656 640 628 416 916 656 664 424 900 660 380 948 660 668 660 632 652 420 900 668 660 648 652 416 916 656 648 412 880 676 656 636 416 868 652 632 664 416 900 664 624 660 412 972 664 628 652 640 412 872 436 1560 656 652 620 644 644 628 640 640 636 636 636 624 620 632 636 632 628 644 640 624 636 636 624 632 648 640 632 660 416 880 672 648 632 416 1496 1168 724 660 688 668 640 412 1028 668 652 656 644 644 412 916 652 648 412 900 668
03665 37120 0.0000 656 644 408 908 652 644 412 916 664 660 640 408 924 668 632 648 424 900 656 656 636 412 924 676 640 656 416 904 660 648 648 412 904 656 412 912 648 652 660 464 844 676 1296 672 644 628 656 648 632 416 888 652 636 640 636 416 900 644 640 644 416 1524 664 628 656 628 616 416 900 656 648 644 412 904 644 644 656 624 420 900 652 684 660 628 412 976 672 652 644 632 656 416 880 672 644 628 416 896 644 700 660 628 416 956 664 640 640 632 420 956 668 644 416 896 664 656 648 636 420 900 652 652 648 628 420 896 656 692 420 884 664 652 632 700 660 632 640 512 796 656 656 640 628 656 636 624 724 652 636 720 660 640 656 648 640 656 416 904 672 652 636 412 904 668 672 644 704 660 644 700 648 644 424 972 656 656 424 872 672 652 632 692 664 636 676 664 652 412 924 668 644 656 408 912 672 640 664 424 880 664 644 628 416 888 664 652 412 872 664 636 632 420 900 660 660 644 404 900 668 636 636 420 484 1016 740 644 640 656 652 644 416 960 660 644 644 628 424 956 656 652 416 880 656 652 632 632 420 892 648 652 644 636 416 904 652 648
03665 37376 0.0000 412 880 668 644 624 708 640 624 652 420 876 652 668 644 628 416 892 648 692 664 632 412 908 652 628 652 636 428 888 664 624 420 932 652 396 924 652 644 652 628 620 416 896 648 648 656 612 416 892 652 632 656 640 412 848 652 620 624 416 896 656 644 628 416 892 652 636 656 416 880 664 636 620 416 940 660 696 660 620 624 648 636 420 900 672 636 712 652 636 700 660 640 648 656 632 416 856 664 632 424 916 656 644 652 628 412 852 664 628 712 656 624 644 656 636 420 860 668 632 640 412 892 656 652 640 636 420 888 656 652 636 420 856 656 624 648 416 880 664 660 628 424 888 656 648 644 632 424 892 656 652 636 416 888 668 612 660 420 896 652 656 636 632 416 904 656 652 416 892 656 656 644 632 412 908 652 632 648 420 884 660 640 416 896 644 624 648 412 880 656 644 620 420 896 652 636 424 900 652 648 648 628 648 648 640 648 652 636 504 388 1020 744 664 628 652 656 632 636 672 644 636 656 644 620 648 648 632 644 656 632 632 652 644 636 412 912 660 644 656 636 412 856 660 636 656 420 880 660 652 640 408 856 656 632 624 420
03665 37632 0.0000 892 656 652 420 896 656 640 416 884 660 660 644 636 660 644 624 648 648 624 476 432 1060 736 648 412 916 668 644 420 912 660 648 408 872 684 644 632 412 968 704 656 648 632 416 892 660 644 408 868 664 640 624 420 888 648 636 656 412 872 668 648 632 412 896 652 648 640 636 420 900 656 652 632 1324 652 640 660 632 644 640 632 628 412 880 656 648 628 632 416 888 652 664 416 872 664 644 628 644 424 872 596 676 644 632 640 628 652 416 860 656 644 612 416 892 652 628 652 632 416 828 656 628 632 420 880 652 632 624 420 836 656 632 644 412 860 660 636 620 420 892 648 628 640 412 868 652 656 624 420 840 648 612 412 884 648 632 416 888 640 640 632 620 420 876 648 636 624 608 644 632 620 692 656 624 616 416 876 640 644 640 620 636 640 620 636 640 624 632 424 872 656 648 632 620 420 892 652 648 416 876 648 652 628 628 416 884 652 644 416 876 664 652 632 652 420 868 656 636 636 628 424 880 644 652 640 408 844 660 616 628 420 872 644 640 648 416 896 668 632 628 416 888 656 656 416 884 656 648 652 628 420 904 652 636 640 624
03665 37888 0.0000 416 884 648 640 420 880 648 648 628 416 900 652 632 648 636 416 860 656 632 628 428 884 652 636 644 628 420 840 656 632 632 424 868 656 648 636 420 840 636 624 420 864 644 656 428 860 652 640 620 412 876 652 620 416 888 640 632 632 424 864 660 640 416 832 644 616 416 892 648 640 416 868 648 652 632 420 900 652 620 420 880 644 648 424 872 652 648 628 628 408 888 644 640 420 872 652 640 624 420 888 652 636 652 628 412 888 664 628 700 652 632 416 836 660 620 696 420 896 644 652 636 620 416 900 660 648 648 416 864 672 644 628 416 904 644 632 644 636 424 840 664 624 416 876 648 624 420 868 644 648 636 412 836 652 628 412 904 648 628 408 896 652 648 640 640 424 872 652 652 628 416 900 648 636 416 884 644 652 640 628 424 892 644 640 640 412 880 668 632 644 416 888 656 656 632 424 892 648 628 420 872 644 644 640 632 420 888 656 644 640 628 636 656 624 636 652 624 632 664 424 888 672 656 628 628 420 896 652 660 644 632 648 648 624 648 652 632 636 656 416 848 676 640 636 640 420 892 648 648 632 416 848 652 620 420 880
03665 38144 0.0000 640 636 424 872 660 644 632 412 896 656 632 412 892 664 656 632 416 856 660 636 420 856 652 628 652 416 848 668 648 420 860 668 640 624 416 904 652 640 424 900 640 664 416 864 688 648 640 408 864 668 636 648 424 924 652 644 656 416 852 732 656 636 408 920 652 640 412 924 660 660 648 640 408 920 664 652 420 912 664 652 640 644 416 908 652 656 640 408 844 664 628 644 420 908 660 652 416 848 672 656 640 416 864 660 636 412 928 664 644 416 912 652 648 648 636 644 648 632 640 648 640 636 416 900 660 656 652 632 636 664 652 640 656 656 620 640 656 636 632 660 648 632 648 656 628 644 656 648 628 648 416 860 656 660 644 640 420 908 656 640 420 856 732 648 640 412 900 648 648 416 904 676 652 632 408 864 660 628 416 920 648 644 416 900 652 660 648 416 872 660 632 408 908 656 656 416 900 652 648 408 884 680 652 628 416 908 648 640 416 900 660 664 648 624 408 904 652 648 648 636 648 652 632 640 652 420 864 664 644 636 412 876 652 636 424 956 668 708 660 640 656 416 916 664 672 640 636 416 924 668 676 656 636 656 664 648
03665 38400 0.0000 636 412 928 656 660 652 632 652 660 636 644 652 416 864 720 664 648 652 416 888 656 652 412 852 680 648 628 420 860 652 640 668 416 860 652 640 408 872 660 636 412 872 664 644 628 416 888 660 628 420 904 652 624 416 888 652 656 420 884 664 640 624 416 892 652 660 424 920 712 660 652 636 416 924 660 644 644 632 640 652 644 636 416 916 648 648 652 632 636 416 896 656 636 644 640 640 420 924 656 648 648 424 872 672 644 628 416 928 648 704 660 636 636 412 908 648 612 380 968 660 656 640 404 912 660 632 644 408 896 656 644 624 412 904 656 644 416 916 660 632 644 408 848 668 632 628 408 884 644 640 424 864 664 632 624 408 880 644 648 628 416 900 648 624 408 896 656 652 636 408 884 648 652 400 896 672 652 624 412 892 640 636 412 880 656 632 412 888 648 628 416 884 652 640 620 404 872 644 636 416 872 668 632 620 416 888 656 656 416 896 660 636 628 412 892 660 648 412 892 656 620 412 892 648 636 412 876 656 624 636 416 860 656 636 408 876 644 628 412 944 664 644 416 860 652 628 616 416 872 636 628 628 612 628 416 868
03665 38656 0.0000 656 620 416 864 644 628 412 872 648 636 416 876 648 632 416 876 688 628 412 872 656 636 632 408 892 652 620 408 940 708 648 644 412 876 656 628 416 876 648 632 412 872 640 640 624 408 880 656 616 412 876 644 636 628 416 884 648 624 408 868 640 644 628 412 872 652 676 632 412 880 652 620 420 920 684 636 640 412 852 668 628 412 856 692 620 640 416 868 652 632 412 876 640 624 416 936 688 704 632 620 408 936 692 648 640 412 876 652 620 416 932 696 652 628 616 416 932 688 700 648 616 412 924 696 640 640 416 880 648 620 412 936 692 656 636 408 880 648 616 404 940 692 644 640 412 912 640 624 416 932 704 652 676 620 416 944 888 800 760 652 628 420 880 656 624 416 876 656 644 412 868 672 632 412 872 648 664 640 412 1308 1200 1176 1044 788 652 652 640 612 412 848 684 700 632 668 716 632 404 912 656 664 656 416 872 672 628 624 696 644 412 892 648 620 644 624 616 416 948 700 640 684 660 692 660 684 640 416 1264 1124 1120 1072 808 656 640 624 616 408 852 704 636 660 672 640 656 676 636 420 912 648 660 708 628 624 688 648 656 684
03665 38912 0.0000 416 864 892 800 756 732 640 692 648 416 884 664 628 692 648 408 884 664 688 652 632 420 924 644 688 660 408 888 668 624 684 644 420 880 676 624 416 936 692 692 640 628 420 944 692 644 636 412 892 656 628 708 644 412 876 656 628 412 956 712 648 636 628 420 884 644 652 640 408 880 656 624 412 956 716 656 676 628 416 888 1288 852 1256 852 684 656 624 648 636 404 896 640 624 644 632 620 640 640 616 416 944 660 636 416 872 1236 796 1180 908 744 640 672 652 628 616 412 884 1236 836 1240 844 1124 948 840 688 696 664 684 688 652 632 680 652 652 412 876 696 668 700 668 500 832 700 672 712 664 668 416 924 1224 820 1224 1144 1124 924 808 700 712 644 624 684 660 668 688 700 664 672 660 676 680 660 672 412 928 696 708 652 400 964 664 672 708 676 668 720 684 680 416 900 896 812 804 684 688 820 764 712 668 644 704 668 632 708 652 412 916 668 640 708 660 628 412 964 704 704 668 636 696 420 916 1256 824 1268 868 1240 884 1176 1144 1124 1112 1096 828 1352 692 648 680 552 764 692 716 668 684 720 676 696 664 672 688 668 684 688 672 692 696 672 400
03665 39168 0.0000 964 676 688 724 660 672 688 676 684 700 676 688 696 664 676 708 668 512 868 680 648 712 664 644 708 680 640 700 660 636 688 420 904 720 524 820 1408 792 756 664 704 672 500 824 736 644 704 672 648 680 668 508 796 740 660 676 668 652 676 420 908 716 676 684 644 416 952 720 728 676 692 680 684 700 672 648 696 420 920 672 660 648 696 668 644 652 424 904 668 672 640 648 420 912 656 660 640 696 660 656 700 416 900 672 644 636 420 904 660 700 656 628 676 660 644 420 932 664 668 648 644 416 896 668 644 692 648 416 884 668 648 636 704 652 632 416 964 704 520 820 652 704 652 624 416 960 672 656 656 632 420 964 724 680 652 676 508 808 656 660 644 420 948 676 632 700 660 640 408 980 680 708 660 644 716 420 916 684 656 636 408 916 660 652 660 640 632 416 900 664 656 644 640 416 972 676 688 660 644 504 864 676 640 656 632 412 916 660 700 660 632 412 960 708 700 664 680 700 656 684 496 840 672 696 668 644 412 916 664 684 676 416 900 676 648 624 704 664 644 412 968 668 692 668 644 416 968 704 648 728 648 696 416 928 692 660
03665 39424 0.0000 636 420 960 668 692 744 656 648 672 412 900 748 652 704 664 636 700 660 424 908 696 640 648 420 904 664 668 644 636 416 988 724 716 660 640 668 424 884 664 644 636 416 904 668 724 648 640 416 900 656 692 660 632 680 416 912 668 672 644 640 416 916 660 660 644 636 416 976 724 668 636 700 672 644 420 980 664 684 668 652 636 424 912 660 656 640 636 412 988 724 668 648 636 416 912 664 668 420 904 1388 200 2060 848 716 668 712 672 648 712 664 644 696 664 636 416 972 668 656 732 656 684 716 416 916 716 668 644 684 412 932 676 668 648 412 980 684 432 952 712 696 672 640 696 416 912 724 676 680 656 724 652 684 424 936 660 680 652 640 664 420 908 688 640 648 416 900 668 672 644 644 680 420 888 676 668 636 420 980 664 648 664 640 652 420 896 672 636 412 908 696 644 728 660 676 416 924 656 660 660 644 412 996 720 672 648 636 720 664 648 420 1420 1040 696 652 648 712 660 640 644 420 916 672 668 640 696 420 924 660 668 652 644 412 916 680 656 648 416 928 664 656 728 648 660 424 928 676 672 656 644 712 420 924 668 668 652 640
03665 39680 0.0000 656 424 892 688 656 644 412 1428 1200 852 748 660 644 644 416 904 712 664 644 632 684 416 900 664 664 652 624 416 904 652 648 652 412 896 668 636 628 408 904 656 664 652 632 412 896 656 660 648 416 900 668 632 640 652 416 896 676 652 632 644 412 904 656 508 408 1052 716 652 644 628 420 968 656 684 672 640 632 420 980 712 656 672 632 412 924 664 644 668 416 900 732 664 648 700 668 644 416 892 664 692 652 424 904 676 636 688 420 920 1376 1160 904 812 808 684 668 732 668 684 724 656 640 720 652 416 896 916 824 840 680 660 732 660 680 712 420 924 728 668 684 648 420 924 1400 796 732 680 648 648 412 920 684 660 644 628 656 416 884 680 648 676 672 652 412 908 684 636 696 664 632 628 420 896 660 656 656 640 712 652 644 420 912 668 652 648 632 424 904 660 708 656 696 656 416 888 676 640 640 416 888 664 664 640 632 660 428 876 676 640 624 416 896 660 652 644 632 416 936 672 636 652 416 884 660 636 636 648 424 872 664 640 628 692 420 880 668 652 628 412 888 648 640 416 896 668 700 640 628 668 652 636 424 900 652 640 652 416
03665 39936 0.0000 868 668 448 848 656 644 624 416 936 660 504 396 1056 732 648 636 696 648 508 812 652 624 696 424 880 1372 1144 900 744 676 664 640 492 868 712 656 644 676 424 972 712 432 456 1088 200 1056 820 1232 888 1200 1160 1152 1008 836 676 652 656 640 636 428 908 700 656 676 676 676 676 668 668 416 884 728 664 672 684 660 648 676 668 424 900 688 652 648 688 660 644 660 416 884 676 644 632 716 664 636 420 956 668 688 664 636 420 924 668 640 664 652 504 832 676 640 692 420 900 668 656 644 692 664 636 420 904 660 672 668 648 676 660 428 880 736 672 648 684 668 420 888 680 652 704 420 912 688 660 644 420 984 664 700 676 632 684 420 924 680 676 652 688 676 648 652 420 920 672 664 644 636 420 976 720 676 660 640 420 916 660 652 720 652 640 688 668 412 900 684 652 640 420 952 664 656 420 904 672 668 640 404 920 668 644 728 656 648 408 980 676 692 668 652 424 916 660 652 412 924 676 664 652 640 416 988 724 676 672 636 704 660 412 920 676 648 720 656 644 416 908 668 668 652 416 488 1040 716 660 416 912 684 668 636 636 416 920 664 664 656
03665 40192 0.0000 416 912 680 644 648 420 928 680 664 664 640 412 484 1116 1460 988 852 696 672 684 644 488 468 1032 664 668 648 636 416 920 648 644 428 884 676 644 636 416 900 664 652 652 416 924 676 628 700 420 904 680 660 640 420 964 668 708 664 648 420 916 664 656 416 900 684 664 648 692 424 908 668 660 644 416 916 668 644 408 924 672 676 656 416 924 664 644 668 420 904 680 656 632 420 976 672 708 668 640 700 416 904 664 660 648 644 412 924 664 652 652 416 932 660 640 712 660 640 416 936 660 648 672 416 884 684 664 640 696 416 916 660 672 652 644 724 664 416 948 668 648 412 932 668 652 412 908 668 708 668 644 416 912 660 644 664 412 900 680 508 460 1000 664 640 644 420 868 664 652 624 412 956 676 696 656 416 892 672 660 636 416 980 672 704 656 412 912 680 640 648 416 908 664 660 656 640 420 1464 1276 920 856 824 664 676 660 644 416 940 680 672 652 644 664 416 900 696 660 644 416 936 656 712 680 640 420 932 668 644 664 420 912 688 668 652 660 412 916 668 664 648 652 412 908 676 668 648 644 668 420 868 664 636 632 416 912 664 660
03665 40448 0.0000 644 636 652 420 900 680 652 632 652 416 892 668 664 640 420 924 664 640 660 420 888 676 652 644 404 908 652 648 652 420 884 660 644 636 416 904 664 660 416 892 676 656 640 424 916 668 640 660 412 884 672 656 644 416 1388 1136 836 712 652 668 684 632 408 916 680 652 640 416 936 700 700 660 640 416 960 668 692 672 416 892 696 652 420 904 664 644 408 912 672 660 652 420 468 1040 724 656 664 412 904 676 636 648 428 900 668 660 644 412 892 664 652 416 888 664 652 632 420 948 676 696 664 412 896 684 648 712 420 932 676 664 652 672 420 908 696 652 640 664 420 896 676 672 648 412 920 668 644 668 424 896 684 644 644 416 912 676 668 644 412 924 660 644 672 416 900 680 660 632 420 984 680 704 668 640 636 412 912 672 664 648 424 908 656 644 664 416 896 680 648 632 416 904 660 660 664 420 896 684 644 636 416 900 660 648 412 888 668 644 640 424 904 656 652 644 412 900 680 636 644 420 900 656 660 648 416 900 664 640 660 420 888 672 652 644 416 900 660 660 416 892 732 664 640 412 912 656 644 672 420 888 676 648 640 412 912 660
03665 40704 0.0000 648 656 416 892 672 652 636 424 892 656 640 652 412 892 680 636 648 420 888 660 660 644 416 900 660 628 412 892 660 648 652 420 848 656 624 704 420 888 672 644 636 416 896 648 648 648 424 872 668 636 628 416 908 664 664 420 880 672 636 632 424 888 668 636 412 892 660 664 652 416 920 668 632 696 420 904 668 664 416 884 680 640 704 416 916 680 668 412 896 688 652 652 420 892 648 636 416 904 652 656 648 412 884 672 640 640 416 892 660 640 416 880 664 648 644 420 888 664 636 692 412 904 664 644 636 632 412 880 656 648 640 420 884 656 624 684 420 884 660 648 412 864 664 628 632 416 896 656 636 416 876 660 644 632 416 884 644 640 652 408 876 676 640 624 424 880 644 636 660 420 868 680 644 632 412 920 660 660 416 892 656 644 636 628 420 888 668 640 640 416 868 668 652 680 424 896 708 704 424 904 692 656 644 632 420 888 696 656 420 884 724 644 412 888 672 640 696 420 884 712 648 648 640 420 900 664 652 640 416 892 664 636 700 416 884 700 660 652 424 884 668 620 416 940 708 656 652 416 876 676 636 628 420 880 664 640
03665 40960 0.0000 636 408 884 656 628 644 424 876 664 644 628 416 892 660 632 416 884 656 576 416 968 664 624 420 876 664 624 636 412 880 660 648 640 416 876 676 628 636 420 880 656 644 648 416 888 676 636 636 420 896 664 660 644 412 892 660 640 652 420 896 672 648 416 896 664 648 652 416 868 664 648 636 412 840 664 632 644 420 872 656 644 420 884 660 632 636 412 868 660 652 416 880 668 632 624 420 880 652 648 420 888 660 644 416 880 668 652 632 416 872 660 636 412 884 676 636 416 884 652 624 648 420 868 668 644 628 416 888 668 660 416 884 676 636 416 884 668 632 416 896 648 640 656 416 880 680 636 628 412 888 660 656 424 880 668 652 628 420 892 656 640 412 896 652 648 632 424 836 664 624 412 956 708 656 648 424 896 660 636 704 420 424 1092 684 636 632 416 876 656 648 424 868 676 644 628 412 888 656 648 416 884 660 640 412 884 676 640 636 412 884 652 644 416 868 664 644 412 872 672 632 696 428 888 660 640 412 868 664 632 628 424 868 652 644 632 412 896 660 632 640 416 872 656 640 420 896 668 632 628 412 880 652 648 412 872 668
03665 41216 0.0000 624 628 420 884 660 660 636 412 888 656 632 640 416 892 656 644 416 884 672 648 636 636 412 884 656 640 416 872 672 632 624 636 416 860 652 644 416 852 660 636 416 868 668 632 412 876 652 620 412 880 660 440 860 656 648 632 624 656 416 872 668 640 412 884 656 624 420 948 668 644 640 624 416 888 648 644 412 872 656 648 632 636 424 896 652 640 420 864 664 644 420 872 660 628 420 864 652 652 420 868 720 640 628 688 652 420 900 672 632 412 884 656 644 416 888 660 648 628 640 408 900 660 668 412 888 668 636 700 656 632 416 880 656 636 656 420 892 676 644 420 884 668 632 644 416 892 656 656 412 880 672 640 632 416 896 668 648 636 412 900 652 640 656 412 864 680 644 408 908 664 624 644 424 888 664 648 644 636 408 872 656 648 632 632 424 872 648 656 416 872 680 632 628 412 880 656 644 636 420 880 648 692 416 868 720 652 636 408 936 664 680 656 636 416 896 660 684 644 420 880 676 628 412 900 652 636 416 904 664 664 648 636 412 964 716 724 656 636 412 900 656 664 652 636 416 968 680 640 732 652 412 976 680 648 704 668
03665 41472 0.0000 640 416 928 668 640 724 656 408 916 696 648 648 420 912 660 660 652 416 912 672 648 720 656 640 420 904 656 656 636 408 892 668 628 412 976 712 668 652 636 412 912 660 652 420 876 724 652 644 416 956 672 688 660 636 416 912 672 640 408 988 724 732 668 644 416 916 664 652 648 412 920 676 640 696 660 416 912 684 640 644 420 904 664 668 648 412 932 676 636 664 412 900 664 652 636 412 892 656 636 412 896 668 648 632 628 420 944 664 656 652 412 888 664 632 636 420 900 652 652 636 412 892 660 640 412 904 668 652 632 416 420 1084 716 656 640 404 420 1076 720 656 636 416 888 652 644 652 416 876 724 652 632 416 956 700 668 648 640 416 860 676 636 632 424 1564 1308 1240 916 820 784 656 712 660 640 420 972 708 712 656 632 412 980 704 692 660 636 408 960 708 708 664 644 416 964 712 724 656 644 412 976 704 712 656 640 416 920 660 380 948 680 712 664 648 700 660 648 416 972 716 676 648 644 704 664 644 416 940 668 656 668 652 636 664 648 416 920 664 640 672 640 428 920 672 636 668 648 408 892 672 368 940 676 644 628 420 956 700
03665 41728 0.0000 708 652 632 408 952 704 700 660 648 412 924 704 640 716 656 676 412 912 660 664 648 412 420 1080 720 668 644 412 912 684 640 712 660 416 908 684 652 416 988 720 672 664 648 424 920 672 664 412 1000 728 364 1012 664 660 656 404 892 668 388 1528 1140 840 680 660 672 660 636 412 904 672 644 412 928 680 652 652 636 416 896 660 640 416 896 668 648 420 880 732 656 668 412 960 700 668 672 644 408 1416 1136 804 668 664 656 636 408 896 684 656 652 416 896 656 636 644 416 900 716 700 656 680 684 708 416 892 1140 1092 1080 1068 880 676 640 704 648 632 412 928 704 588 756 708 668 872 824 756 652 420 884 808 756 692 644 408 880 792 728 692 716 648 672 704 408 876 840 784 704 656 648 408 876 668 644 416 872 724 664 668 644 416 900 804 708 772 744 676 768 680 640 408 1208 1012 732 692 780 712 676 656 636 672 416 908 704 648 644 680 668 420 1076 800 748 688 760 724 688 696 656 416 928 712 676 692 656 668 688 656 412 908 736 676 688 668 512 816 736 656 684 664 648 688 704 656 688 416 984 716 712 684 676 720 656 684 664 424 872 1232 836 928
