# physionet r-r rhythm segments, distilled
# source PhysioNet afdb / nsrdb / mitdb, ODC-BY 1.0
# class SinusNsr
# segment_beats 256
# selection every 112th of 6746 segments in this class
# columns record start_beat premature_fraction rr_ms...
# lead chest, ambulatory Holter ECG - NOT wrist PPG
16265 0 0.0000 602 609 602 625 609 625 594 602 617 617 648 625 617 625 648 648 641 625 633 625 617 617 625 617 602 617 625 633 617 633 656 656 664 648 641 664 688 656 641 641 648 633 633 617 625 625 617 625 625 617 625 633 648 648 633 641 641 641 625 641 648 656 641 633 648 633 625 633 633 633 656 664 672 664 633 633 641 617 625 609 617 617 609 602 609 625 609 602 617 633 609 594 594 609 609 609 609 625 656 641 641 641 641 625 617 625 625 617 625 625 617 609 609 625 633 602 609 609 586 578 570 570 586 578 570 563 563 563 555 555 555 531 555 547 578 570 586 594 625 648 633 617 625 617 602 609 602 602 586 602 594 570 578 578 609 609 617 625 617 609 617 641 609 625 617 633 609 602 594 586 594 594 594 602 633 648 648 664 672 656 625 641 633 609 609 617 617 609 609 633 633 625 617 617 617 625 617 617 633 664 641 625 625 617 594 594 609 609 602 602 617 609 594 609 609 602 594 570 578 594 609 617 648 641 633 641 625 625 617 625 602 602 617 609 609 633 664 648 648 664 664 648 617 625 609 609 594 586 594 602 594 594 586 594 586 586
16265 28672 0.0000 641 641 633 617 609 594 578 563 578 578 609 641 648 664 633 617 625 625 609 602 609 633 672 734 680 672 648 633 641 672 641 641 602 617 602 625 586 570 594 594 633 719 727 703 688 648 633 602 586 578 586 594 602 625 641 648 617 641 625 609 602 609 602 617 617 625 594 586 578 578 555 547 547 523 523 539 531 547 531 523 539 539 586 641 672 617 586 609 609 594 594 578 586 578 570 563 555 594 617 633 617 617 625 648 602 617 602 633 633 625 633 648 609 586 594 633 656 648 617 625 617 586 586 578 602 617 602 602 563 570 563 563 578 570 555 555 531 539 570 586 609 586 570 586 555 563 563 563 563 555 547 547 563 555 570 570 578 586 602 625 594 578 578 578 609 664 664 617 609 617 617 609 633 711 734 703 664 672 672 680 703 742 711 672 641 594 578 555 563 570 609 633 633 711 773 750 742 719 680 664 602 578 547 547 523 531 602 758 758 719 688 703 664 695 711 656 672 656 641 633 617 586 594 594 602 602 594 563 563 555 570 617 703 789 789 797 773 672 617 617 594 602 570 555 563 609 648 688 711 719 672 625 602 602 602 586
16265 57344 0.0000 758 719 719 883 1000 1055 992 1055 1125 1156 1102 1016 1023 1016 977 992 1031 1031 992 1023 961 820 734 719 1000 906 1016 1039 945 984 969 906 828 914 1016 938 898 992 984 898 984 1000 883 859 875 883 836 898 1000 938 891 914 945 906 969 1039 930 859 875 906 906 969 1039 977 953 992 977 969 1016 992 969 1031 961 859 859 969 992 922 969 922 852 883 938 891 859 836 805 828 953 977 938 914 906 859 813 906 969 961 953 984 977 914 828 820 781 797 914 1047 938 891 875 828 781 750 750 844 875 898 969 930 961 977 891 828 813 844 828 789 742 703 727 742 797 813 867 859 859 859 859 805 766 781 750 734 742 805 938 930 969 984 930 898 938 914 852 867 844 828 844 961 992 930 969 945 891 883 859 883 789 859 938 930 922 891 844 789 766 773 773 781 844 867 891 984 992 914 883 867 836 859 906 914 875 914 945 891 805 805 828 828 883 969 1023 945 984 914 867 836 938 922 898 875 891 859 875 820 797 859 961 938 836 906 930 805 766 766 773 805 906 1023 969 945 969 922 891 914 914 891 906 930 914 875 852 852 813 828 789 883 883 859 906 945 883 930 1008 969
16265 86016 0.0000 1141 1094 1195 1148 1164 1125 1047 1070 1086 1047 1109 1086 1070 1141 1117 1078 1117 1094 1141 1109 1109 1156 1156 1078 1156 1164 1125 1188 1141 1094 1141 1055 1031 1102 1070 1094 1055 1047 1141 1195 1039 1039 1063 1023 1188 1039 1039 1102 1117 1266 1227 1164 1172 1117 1180 1141 1133 1188 1141 1164 1133 1070 1125 1094 1094 1102 1031 1063 1078 992 1039 1070 1023 1063 1094 1078 1133 1109 1078 1141 1133 1078 1133 1109 1055 1102 1125 1078 1148 1109 1070 1188 1164 1117 1133 1016 1047 1078 1094 1125 1117 1063 1109 1094 1023 1070 1008 898 914 984 953 1172 1063 1086 1305 1180 1148 1203 1117 1172 1148 1063 1156 1133 1156 1188 1125 1211 1117 1125 1188 1125 1141 1211 1094 1133 1227 1133 1133 1148 1141 1172 1125 1164 1203 1133 1172 1109 1125 1141 1094 1078 1125 1063 1133 1086 1047 1109 1086 1086 1141 1078 1094 1148 1070 1047 1039 1047 1086 1250 1094 1094 1211 1148 1211 1234 1133 1180 1148 1141 1188 1133 1141 1172 1094 1094 1086 1047 1117 1102 1094 1125 1102 1094 1094 1055 1047 1102 1063 1086 1125 1070 1172 1148 1047 1078 1094 1000 1063 1078 1047 1109 1102 1063 1102 1086 1125 1125 1063 1109 1047 961 1063 1141 1141 1172 1133 1164 1250 1039 1016 1086 1070 1188 1211 1133 1219 1117 1102 1109 1039 1086 1039 992 1078 1070 1055 1086 1063 1125 1133 1164 1195 1125 1125 1203
16272 14592 0.0000 1016 1039 1070 1047 1023 961 984 1039 1070 1070 1109 1094 1039 1063 1094 1086 1016 1039 1094 1070 969 984 969 969 961 984 984 945 930 961 961 922 930 945 945 953 938 906 906 930 922 961 969 1008 1000 984 961 953 875 875 891 906 945 1023 1063 1055 1047 1031 1039 1016 1031 1016 1039 1016 1039 1016 945 945 945 969 992 992 992 1055 1063 1086 1063 1023 1008 992 953 977 992 1047 1094 1055 1070 1078 1070 1055 984 977 953 969 992 992 977 984 1016 984 984 977 1016 1055 1086 1102 1117 1078 1047 1047 1000 1023 977 977 992 1008 977 1000 1055 1039 1047 1063 1055 1039 1039 992 1008 1000 1039 992 1008 1070 1078 1047 1023 1055 1047 1023 1031 4898 961 969 945 945 953 945 969 1000 1016 1031 1000 1016 1016 984 984 1000 984 953 945 961 1000 977 1016 1000 992 992 984 992 984 953 969 977 953 969 969 930 938 953 961 961 953 977 922 969 1000 1016 1023 1008 1016 1008 953 961 977 1047 1008 1000 992 1000 1000 1008 992 945 961 961 1000 984 984 961 938 930 938 992 977 1008 1023 1016 961 977 977 977 984 977 961 969 945 953 945 898 922 977 1023 1055 992 1016 992 977 961 953 969 984 992 1000 992 1016 1055 1039 1078 4180 1000 1000 1000 1000 1016 1031 969 1008
16272 43264 0.0000 1008 1023 1016 977 984 992 992 1000 977 1000 1016 1000 1000 1000 1000 969 992 1008 1008 1000 1000 1008 1023 992 1016 1016 1000 977 1000 1008 1008 992 1000 1000 969 961 977 969 961 969 1000 1016 1016 1023 1039 1039 1023 1023 1000 1000 969 1008 1008 1023 1008 1031 1063 1047 1047 1039 1047 1016 1031 1023 1008 1000 1008 1023 984 1008 1000 1023 984 1008 1000 1008 984 992 1016 1000 984 992 1000 984 992 992 1031 1008 1023 1031 1047 1023 1023 1031 1031 1000 1031 1023 1031 1023 1031 1047 1031 1016 1031 1031 1008 1023 1031 1047 1023 1031 1031 1039 1016 1031 1023 1023 992 992 1016 1023 1000 1000 1000 1000 984 1000 1008 1023 992 1008 1008 1000 984 1000 1016 1039 1023 1047 1070 1055 1016 1023 1000 977 984 1016 1063 1078 1055 1078 1086 1070 1039 1055 1055 1023 1016 1023 1008 1000 1016 1023 1016 1016 1016 1031 1008 1023 1047 1055 1023 1039 1031 1039 1031 1055 1039 1055 1031 1047 1047 1055 1031 1055 1047 1023 1000 1016 1023 1008 1008 1016 1031 1000 1008 1008 1016 1000 1008 1023 1031 1023 1039 1055 1063 1031 1047 1047 1031 1016 1023 1039 1031 1023 1047 1055 1031 1039 1047 1047 1000 1023 1031 1016 1000 1031 1023 1031 1016 1023 1031 1016 984 1008 1016 1023 1000 1023 1039 1031 1016 1016 1031 1031 1023 1031 1047 1031 1031 1047 1070 1023 1047 1047
16272 71936 0.0000 883 852 844 852 859 922 1047 1211 1141 1172 1211 1195 1156 1188 1180 1164 1133 1148 1141 1086 1102 1141 1133 1094 1133 1188 1164 1133 1148 1164 1172 1148 1180 1172 1164 1133 1102 1109 1102 1047 1125 1172 1172 1141 1156 1195 1156 1109 1141 1141 1109 1148 1203 1102 1125 1188 1102 1133 1133 1094 1125 1102 1031 977 914 891 859 875 1023 1023 1109 1297 1242 1188 1203 1211 1180 1133 1164 1148 1117 1055 1094 1156 1141 1102 1148 1172 1117 1039 1031 1086 1141 1109 1125 1133 1094 1047 1063 1102 1125 1102 1109 1148 1094 1047 1070 1148 1148 1109 1172 1227 1164 1133 1156 1148 1148 1102 1117 1133 1133 1070 1055 1125 1156 1102 1117 1164 1180 1125 1172 1172 1148 1102 1070 1086 1008 930 906 859 852 844 836 836 828 813 805 797 781 781 773 789 781 797 813 805 844 859 891 906 938 969 984 992 1000 1047 1078 1102 1086 1102 1148 1180 1141 1172 1188 1172 1125 1141 1195 1141 1086 1086 1117 1094 7570 828 859 891 938 945 1008 1008 1008 1000 984 945 953 961 1000 1039 1039 1063 1063 1063 1055 1070 1063 1055 1039 1055 1055 1055 1031 1047 1063 1063 1023 1047 1055 1039 1039 1063 1078 1039 1047 1031 1031 1000 1016 1063 1070 1047 1078 1086 1063 1031 1047 1047 1016 1016 1031 1070 1055 1102 1117 1109 1094 1109 1133 1125 1078 1109 1102 1109 1055 1047
16273 13056 0.0000 711 688 703 727 758 711 734 711 672 680 703 695 672 688 695 711 688 695 703 727 680 711 711 727 719 734 742 734 727 758 766 750 703 719 703 711 703 727 750 734 719 750 727 695 656 672 695 703 711 727 719 695 664 656 656 648 672 656 703 719 734 719 758 750 766 703 727 695 688 688 648 656 633 633 656 672 680 664 664 672 688 672 664 656 625 641 617 625 633 617 641 664 695 664 688 680 680 648 680 688 688 664 695 711 711 703 695 672 656 633 609 602 594 570 570 594 594 617 594 617 609 617 602 609 609 625 648 641 656 680 695 719 688 719 727 727 711 695 727 742 781 711 727 750 742 719 742 719 727 711 742 766 773 719 758 750 734 719 758 773 773 734 750 758 711 727 711 703 688 703 711 688 680 680 672 641 648 648 656 641 656 656 664 680 672 656 656 641 641 617 633 633 633 656 625 641 641 617 617 617 602 617 625 633 617 625 641 641 672 648 648 664 680 656 672 672 688 695 703 711 727 734 711 734 750 734 711 719 734 680 734 734 742 711 734 734 719 695 695 664 680 672 672 648 633 641 625 625 625 625 664 672 688 703 727 758
16273 41728 0.0000 797 766 789 820 805 820 852 859 836 875 820 789 805 844 789 820 805 758 797 828 813 805 844 852 813 836 852 773 781 781 773 773 797 820 813 805 813 797 750 758 789 758 781 781 766 773 789 805 766 773 773 805 758 773 797 758 773 773 773 758 773 805 773 781 773 742 742 750 773 734 719 734 742 719 750 789 750 781 813 781 750 781 781 742 750 789 789 773 773 820 766 789 805 797 813 852 828 750 758 781 781 773 781 813 781 797 813 805 758 750 766 758 742 766 789 766 797 781 742 734 727 727 719 758 781 734 688 695 758 797 820 789 750 773 766 750 734 758 781 805 750 789 781 797 742 742 758 758 758 820 836 836 758 766 750 781 758 766 766 758 742 758 766 758 773 766 758 719 719 719 719 742 789 773 773 797 797 766 750 766 789 758 773 789 805 742 758 773 773 742 750 789 797 797 820 828 797 797 797 766 742 758 805 773 813 836 781 805 844 820 781 797 797 766 797 820 781 805 805 789 766 773 789 758 781 805 805 758 773 789 766 750 781 813 789 797 828 805 750 758 773 781 773 836 875 797 805 805 758 758 789 781 789 797 828 758
16273 70400 0.0000 813 875 961 922 1133 977 883 906 906 883 844 867 867 867 859 828 820 859 852 836 883 906 969 922 859 867 852 805 813 844 859 836 820 828 844 813 797 820 828 852 867 844 906 922 883 875 914 922 867 883 883 859 852 867 867 828 852 852 828 805 813 805 781 773 766 766 781 789 781 797 836 898 961 891 859 906 906 867 867 891 875 844 859 891 875 867 898 914 867 906 906 875 852 891 898 852 828 852 859 820 820 852 883 906 867 914 930 867 844 875 859 836 859 859 836 813 836 813 781 742 758 758 852 828 820 898 1305 961 867 906 977 914 867 891 875 836 844 852 844 828 875 883 852 867 898 906 891 945 1063 922 891 922 922 859 836 859 859 852 813 813 828 852 820 805 852 867 844 828 836 813 789 766 781 766 781 797 789 836 867 852 852 914 953 883 922 945 906 859 883 859 828 852 828 820 813 828 828 789 789 805 797 805 797 797 820 844 828 797 805 813 828 828 797 820 836 820 797 805 813 836 852 836 898 906 914 938 883 867 852 898 898 859 883 945 938 875 883 875 898 836 820 820 813 813 828 828 789 836 922 984 898 852 883 953 891 844
16420 9472 0.0000 734 727 742 703 680 688 711 695 695 664 672 664 664 656 672 648 648 656 664 688 695 766 695 688 695 727 727 719 734 773 742 773 773 758 734 742 758 703 719 711 742 727 711 703 758 789 773 773 781 766 734 766 734 758 766 758 727 688 664 695 695 703 680 656 648 789 789 797 742 734 766 758 789 734 750 758 766 719 750 734 719 711 734 766 750 766 797 758 766 789 742 781 781 742 766 750 719 695 719 711 727 695 750 766 781 734 742 766 773 719 734 750 742 727 773 773 750 758 742 727 727 734 727 727 758 711 656 656 711 742 734 734 742 734 727 727 734 711 734 734 727 727 734 711 727 742 719 711 750 734 719 742 742 727 742 766 750 758 766 727 719 742 719 719 758 773 734 758 750 734 727 734 711 719 727 742 719 750 766 727 742 750 719 742 734 680 719 695 711 672 695 734 695 648 641 641 742 719 758 789 813 805 758 727 742 742 727 719 758 805 742 766 789 805 758 789 789 727 727 734 734 680 719 719 719 703 734 758 734 719 742 758 727 719 703 727 719 742 703 734 734 734 703 672 656 734 695 727 695 719 727 703 680 719 711 719
16420 38144 0.0000 719 703 672 672 680 711 695 711 695 727 734 727 727 734 719 727 703 727 711 719 734 758 750 719 703 711 727 719 703 656 656 695 719 773 766 781 750 719 750 758 734 773 797 758 727 742 719 781 789 734 727 766 727 750 742 789 773 742 766 766 734 734 750 742 766 742 734 750 727 711 711 695 695 672 680 688 711 719 719 680 695 688 680 672 695 711 750 742 758 711 703 711 703 719 703 672 672 672 695 703 727 734 727 703 727 742 758 789 773 727 703 711 711 688 719 719 750 766 734 703 672 695 680 703 703 695 695 695 727 734 742 750 742 727 719 711 719 703 695 703 711 703 703 711 719 695 711 711 727 734 734 758 750 734 742 734 742 750 734 719 750 727 711 711 711 695 688 711 844 875 703 688 711 695 781 758 688 688 688 750 750 742 758 727 711 711 727 750 703 664 672 734 789 875 836 805 789 734 711 703 703 703 711 711 734 758 750 734 695 703 719 727 719 711 719 734 727 742 766 750 727 727 742 758 750 766 703 703 695 703 719 719 695 672 656 680 727 789 750 711 758 758 766 734 773 734 750 773 750 758 734 758 734 734 773 797
16420 66816 0.0000 992 961 922 891 852 914 953 930 922 977 992 930 977 1031 953 977 969 906 945 992 945 922 953 930 898 898 945 891 906 938 891 891 938 945 906 992 977 906 945 969 898 922 961 906 930 977 914 930 938 883 891 930 930 875 922 930 883 883 906 883 844 883 898 859 875 914 898 883 938 938 914 938 969 898 898 938 891 820 844 883 875 930 938 906 953 1031 992 1031 1031 953 1016 1008 930 953 977 922 969 1023 992 1023 1055 984 1016 1008 1016 938 953 984 969 898 961 992 922 891 930 938 906 938 945 906 914 914 875 914 930 898 891 969 945 891 898 898 844 813 852 828 867 969 984 992 1008 992 1000 1008 992 992 1008 1000 984 984 977 977 961 984 977 977 977 984 953 969 961 938 961 945 945 906 914 898 852 906 922 883 914 938 914 898 938 938 898 922 922 906 922 984 930 883 914 961 883 914 945 898 930 1023 953 953 1008 922 891 906 867 883 953 930 898 961 977 914 961 961 906 930 930 875 898 922 898 875 922 922 867 906 930 859 891 930 883 875 930 945 906 938 953 891 922 938 922 914 969 945 930 961 953 930 969 961 914 930 961 914 906 938 922 867 898 922
16420 95488 0.0000 594 578 578 570 570 570 563 547 547 555 555 570 570 609 594 594 633 719 797 797 805 820 5422 656 633 633 633 633 617 641 633 648 625 641 633 625 633 609 609 609 602 594 602 594 594 586 578 586 586 594 594 578 586 578 578 563 563 570 555 555 555 563 563 547 555 563 570 547 555 563 563 563 570 570 578 586 594 609 586 602 586 586 594 594 594 594 602 594 602 578 617 609 586 586 594 586 594 578 578 578 586 609 625 625 617 633 617 633 633 609 594 609 602 617 609 570 586 586 586 586 578 586 586 617 648 672 695 758 828 789 836 813 773 813 758 742 711 695 703 695 742 711 703 680 672 672 688 648 680 703 695 695 742 719 719 734 711 695 703 703 719 680 664 656 656 641 664 680 703 750 734 797 773 758 781 789 758 781 789 766 820 844 789 828 805 781 805 813 789 773 789 773 773 813 797 773 703 695 672 672 703 750 789 797 797 828 820 805 844 805 789 820 828 789 836 805 742 750 742 750 742 781 781 766 789 805 805 781 836 813 789 773 773 773 742 750 727 719 742 750 750 758 766 766 766 766 781 742 750 758 789 773 773 773 742 719
16483 22272 0.0000 594 594 570 602 617 609 617 617 602 617 641 602 641 609 641 602 625 625 617 641 594 633 625 625 641 609 633 633 648 633 609 641 633 641 633 633 641 633 633 664 625 641 656 609 625 633 633 633 609 641 648 625 648 656 656 664 617 648 633 648 625 617 625 625 648 625 617 625 625 641 609 625 648 641 625 648 641 664 648 617 648 633 648 609 633 633 633 648 617 641 633 633 664 633 664 617 648 617 633 633 633 641 648 633 633 641 633 609 633 641 641 633 625 641 641 664 625 672 633 664 641 625 648 664 633 641 625 641 648 656 648 648 641 656 688 656 641 672 648 625 648 648 633 609 633 641 625 656 648 648 633 680 641 656 656 672 656 648 641 641 641 617 633 633 648 625 609 625 625 641 633 609 617 672 617 672 648 656 656 633 664 656 680 664 664 641 641 664 625 648 641 664 648 648 633 648 672 633 680 672 656 711 664 641 664 664 648 648 625 664 703 648 688 688 742 711 688 664 672 680 695 680 672 672 672 648 625 641 633 648 633 625 625 633 648 656 664 656 688 641 664 672 641 648 656 641 680 633 664 641 633 641 641 656 633 633
16483 50944 0.0000 773 789 773 758 750 734 734 734 727 734 750 750 734 719 688 688 703 719 734 742 750 758 758 750 758 766 766 766 766 758 758 766 766 766 766 750 742 758 742 734 742 742 750 758 766 766 766 758 750 742 727 688 688 695 711 727 734 742 758 766 750 742 742 734 734 742 742 750 758 758 773 766 758 758 750 734 727 734 734 742 750 750 766 766 766 773 766 758 758 750 734 734 727 727 734 727 727 750 742 750 742 742 734 719 727 711 711 719 719 719 727 719 734 727 734 734 734 734 742 719 734 719 719 711 734 734 742 750 758 750 766 758 750 734 750 734 734 750 734 742 758 742 758 750 758 758 742 742 750 758 758 773 789 781 773 781 773 727 773 750 742 727 734 734 742 750 758 758 781 781 797 805 773 773 758 734 727 727 719 711 719 742 742 750 758 758 758 750 742 734 734 719 727 711 727 727 734 750 758 758 773 734 734 734 727 719 711 703 672 688 719 727 766 781 797 789 789 781 766 758 750 750 750 758 766 766 773 789 789 781 773 773 750 750 734 742 734 750 773 805 813 813 813 813 789 781 773 766 727 758 719 719 719 734 742 773
16483 79616 0.0000 797 813 789 805 797 805 805 805 797 805 805 813 805 813 813 828 797 805 813 813 805 797 813 797 797 797 789 781 820 797 828 820 844 836 844 852 836 828 852 813 820 813 813 813 797 813 805 797 813 828 828 820 836 836 820 828 813 797 797 797 789 781 805 797 805 805 828 828 813 805 797 805 789 797 781 805 805 805 836 828 844 844 852 813 844 805 820 813 805 805 805 813 828 836 844 844 859 867 844 867 852 859 844 859 844 828 820 836 820 828 828 813 820 820 844 820 820 813 820 813 813 805 844 805 844 852 844 844 844 852 852 828 844 828 828 852 828 820 828 820 813 828 813 813 820 828 813 820 820 836 805 813 813 836 797 836 805 836 797 805 805 797 813 828 805 820 797 828 789 797 805 820 820 789 805 805 813 820 805 805 813 805 813 797 789 789 797 773 789 773 789 813 805 828 836 805 844 805 797 797 805 805 828 797 805 828 828 828 813 852 789 836 813 797 797 805 789 805 813 789 813 805 844 813 820 820 820 805 813 797 797 820 781 797 828 820 789 813 805 828 828 813 852 805 844 828 805 844 805 836 805 844 828 844 859 867
16539 4096 0.0000 750 742 750 742 773 828 844 813 781 820 852 859 813 766 734 719 727 781 836 781 758 859 1172 984 844 891 938 953 953 844 789 828 1000 1180 898 820 914 1047 961 859 891 1195 1086 914 836 844 922 930 828 844 852 914 984 836 813 930 945 867 789 797 813 813 797 930 836 820 1242 1094 1078 852 773 773 805 938 1141 875 906 961 938 891 820 867 891 914 836 820 930 1172 1023 844 789 820 867 977 1000 859 945 992 1094 922 805 836 930 922 805 836 1211 1008 906 875 898 969 914 828 867 883 883 797 773 813 844 891 805 797 922 1063 953 844 867 875 844 797 766 773 773 758 742 750 773 750 742 734 750 727 719 781 789 742 766 750 750 734 734 797 875 859 789 805 828 914 945 828 820 891 1000 953 820 813 875 922 1156 898 852 844 883 1039 836 820 1258 984 891 922 945 938 906 883 984 953 930 898 859 938 969 891 875 922 945 914 875 867 906 914 906 859 906 992 1016 922 961 984 1008 898 883 938 961 930 891 922 969 961 875 922 945 953 906 930 969 1016 914 945 969 914 875 891 898 922 852 820 1016 1000 859 820 836 898 1023 844 836 1242 1094 945 844 875 883 914 867 1070
16539 32768 0.0000 578 586 578 578 570 555 547 547 531 523 516 516 508 508 500 492 508 484 492 477 484 469 477 469 477 469 469 461 477 477 484 477 484 484 477 477 492 477 477 500 500 492 492 492 516 484 492 484 484 477 484 477 484 484 492 492 492 492 508 500 500 500 500 477 492 484 484 484 477 492 492 508 516 523 516 516 516 516 508 500 500 500 492 516 492 500 500 508 500 500 523 531 500 516 508 516 492 500 508 523 539 563 563 570 602 594 625 656 680 633 641 672 672 617 633 656 688 641 641 695 789 664 750 688 711 734 742 773 734 688 680 633 656 664 664 703 750 672 750 703 852 750 711 797 828 695 781 750 711 1086 797 703 703 727 797 820 898 742 758 742 773 727 695 703 758 664 695 734 703 688 711 898 750 781 781 703 727 703 961 766 750 758 695 703 680 1109 953 813 773 719 688 688 781 828 1047 781 727 734 773 711 859 1133 852 1125 789 727 844 750 852 1211 813 805 1148 836 805 930 742 711 789 1188 836 750 953 867 742 836 1086 773 711 734 727 883 844 734 648 609 609 586 609 641 680 688 656 648 648 641 633 633 750 1039 867 766 727 797 711 766
16539 61440 0.0000 680 648 641 641 625 633 633 641 625 648 641 641 625 641 656 648 641 633 602 594 594 602 656 703 680 688 742 719 727 742 750 703 672 641 641 633 625 648 703 742 719 680 688 680 688 680 703 742 758 742 680 664 656 656 648 664 695 750 750 719 680 672 648 625 609 617 641 680 656 656 664 695 727 727 703 664 664 656 656 641 633 633 648 664 680 672 664 648 641 617 625 617 617 641 672 703 703 711 664 672 688 648 633 625 633 641 695 672 672 680 703 688 672 680 711 711 695 656 648 641 625 609 664 727 688 703 742 789 789 781 703 664 664 680 688 711 680 695 680 719 805 742 711 711 703 711 711 680 648 625 633 609 617 641 703 711 719 695 695 703 727 719 680 664 672 648 656 648 680 688 727 711 688 664 664 641 664 688 727 695 680 656 648 648 672 672 680 656 648 633 602 602 602 641 656 695 711 688 656 641 625 609 609 594 594 617 609 625 672 719 734 711 711 703 688 672 633 617 602 602 586 594 602 578 570 570 570 555 531 547 531 523 531 531 531 523 547 547 547 563 563 586 594 609 609 625 648 609 617 633 641 664 680 680 648 633
16539 90112 0.0000 758 766 773 781 797 758 734 797 859 875 789 820 898 898 813 773 797 844 867 805 773 773 797 820 836 781 750 750 758 758 750 742 734 758 781 813 820 773 805 836 820 797 758 727 727 734 750 758 734 711 719 727 734 750 742 703 711 711 750 766 766 734 734 750 742 773 719 711 695 695 695 758 820 789 766 1195 1031 906 852 859 820 789 781 758 781 797 836 797 758 805 820 820 781 766 805 852 836 789 773 797 781 766 781 797 813 781 750 797 836 789 758 750 719 719 695 688 656 672 656 672 656 688 727 734 711 711 719 750 781 781 758 727 703 695 680 641 656 641 648 664 680 672 672 688 688 695 719 711 758 789 781 773 727 711 734 727 766 766 750 742 789 906 1133 859 766 773 844 1031 844 797 797 906 1195 1031 867 813 789 859 789 773 820 906 922 820 820 1078 1227 938 805 773 781 852 930 867 805 844 1266 1063 867 805 805 891 906 844 789 852 953 828 813 875 914 844 828 906 961 852 789 766 727 711 695 688 688 734 766 727 766 1289 906 1109 984 844 789 805 828 820 781 742 773 773 805 828 766 766 789 859 906 875 797 781 813 875 797 773 797 828
16773 10752 0.0000 789 820 805 805 883 930 922 867 891 883 844 844 867 820 805 797 789 781 742 773 898 1039 1039 969 891 813 742 688 711 766 1094 1008 992 992 1039 1039 969 922 820 789 719 703 719 789 914 906 930 1031 1031 945 953 891 906 906 953 930 844 859 891 891 875 891 883 883 852 852 852 883 867 813 789 844 828 859 891 914 836 867 891 867 875 930 969 1031 945 961 969 930 906 859 828 773 711 719 813 1148 1031 1117 1078 1016 977 961 945 938 930 914 906 852 906 938 945 859 867 945 906 914 914 906 867 836 805 734 742 719 828 945 1078 1008 922 930 961 914 898 836 773 781 766 766 773 867 906 945 844 805 805 789 734 734 758 773 789 781 820 805 852 844 820 789 828 852 875 891 859 836 773 703 688 719 742 820 781 742 695 680 672 680 648 664 641 625 609 609 633 727 891 914 859 781 703 656 625 602 586 594 617 797 1180 1039 1008 922 1000 914 891 938 914 922 961 977 922 844 859 875 945 953 945 953 898 875 891 883 836 844 945 977 922 930 945 898 891 852 906 961 945 906 859 883 930 961 945 938 844 836 852 875 906 945 867 883 938 922 844 781 711 680 688 719
16773 39424 0.0000 867 891 852 852 875 867 852 914 992 961 930 922 930 906 953 977 930 953 961 938 930 977 953 922 977 914 898 898 914 852 797 773 773 758 711 711 719 719 695 703 703 734 742 742 773 789 828 805 789 742 734 734 742 703 664 680 695 727 742 758 789 844 859 781 750 703 711 734 820 828 852 867 906 813 805 836 820 750 758 773 813 758 789 766 711 719 680 672 633 633 625 617 594 586 586 586 570 570 570 766 859 828 805 711 680 664 648 672 680 664 648 648 656 625 641 633 625 602 594 617 695 695 680 711 703 648 641 648 625 633 633 633 656 680 703 672 734 711 688 727 742 742 688 680 680 688 672 727 742 703 758 781 719 711 789 930 898 883 820 727 719 695 648 617 625 609 602 625 648 680 703 672 703 703 711 766 828 844 758 742 703 680 664 680 711 719 695 680 711 719 797 781 773 773 758 727 719 688 688 727 750 742 781 930 945 867 867 859 797 781 797 813 852 938 953 844 727 789 773 828 820 852 867 789 789 805 789 805 875 922 930 883 797 797 805 781 813 938 1008 875 875 961 906 969 1031 969 922 969 977 875 891 922 891 969 1039 906
16773 68096 0.0000 1227 1367 1398 1375 1164 1242 1422 1406 1313 1211 1273 1359 1281 1219 1156 1250 1359 1203 1180 1406 1359 1273 1172 1156 1258 1359 1281 1102 1156 1422 1344 1305 1180 1242 1273 1234 1203 1180 1281 1422 1336 1172 1430 1453 1406 1148 1227 1438 1461 1398 1219 1273 1453 1398 1320 1211 1336 1320 1344 1211 1180 1391 1320 1336 1180 1289 1453 1313 1344 1188 1195 1422 1336 1297 1234 1242 1406 1344 1242 1195 1375 1383 1328 1242 1219 1367 1414 1328 1188 1219 1359 1328 1227 1180 1375 1438 1352 1219 1281 1453 1367 1328 1227 1344 1344 1289 1188 1297 1367 1328 1289 1148 1195 1266 1273 1242 1133 1367 1305 1344 1156 1195 1398 1367 1297 1203 1297 1359 1344 1195 1273 1344 1328 1328 1211 1133 1367 1320 1188 1094 1008 1500 1617 1508 1258 1352 1547 1539 1313 1320 1602 1477 1258 1383 1477 1438 1328 1266 1438 1445 1344 1273 1461 1367 1305 1156 1469 1422 1336 1227 1289 1469 1398 1164 1203 1359 1328 1383 1242 1375 1367 1375 1281 1234 1406 1391 1305 1344 1422 1313 1188 1172 1422 1344 1258 1195 1219 1492 1391 1273 1141 1234 1406 1367 1164 1242 1414 1422 1258 1203 1313 1352 1391 1203 1344 1453 1367 1195 1211 1492 1367 1328 1195 1211 1352 1414 1359 1211 1430 1430 1344 1188 1336 1484 1406 1305 1219 1430 1375 1344 1195 1234 1352 1305 1250 1148 1250 1352 1289 1156 1172 1391 1383 1188 1148 1391
16786 14848 0.0000 734 828 727 828 859 891 898 867 836 797 773 750 680 711 719 828 805 742 766 789 711 789 797 844 852 852 836 781 773 742 781 813 836 828 766 719 703 727 789 852 797 836 867 867 789 750 742 773 797 859 859 844 773 797 813 844 867 938 883 883 891 813 828 789 789 781 781 695 703 680 688 711 797 781 773 828 758 789 836 750 766 805 750 750 734 734 773 852 828 820 797 766 695 680 695 711 688 703 727 766 758 727 695 695 734 719 734 758 680 680 695 750 781 789 695 703 695 703 711 719 727 734 688 656 648 656 750 766 734 766 813 781 766 789 820 797 789 797 734 727 750 797 797 789 773 688 680 672 680 742 859 891 906 898 813 758 727 711 734 781 789 742 727 773 813 742 727 734 781 797 805 758 672 688 727 836 820 852 813 789 695 688 672 680 805 820 773 797 836 859 742 773 742 766 797 813 813 820 758 750 797 820 820 820 781 781 789 727 766 781 820 781 781 805 758 781 828 852 859 836 813 781 750 727 742 719 688 688 766 797 805 797 781 766 727 727 703 656 656 664 758 711 711 844 859 867 844 797 766 750 703 672 672 719 789 805
16786 43520 0.0000 797 781 727 750 742 773 773 758 781 766 813 805 789 797 797 805 797 781 766 758 734 727 734 820 813 813 820 813 781 773 719 734 719 727 766 766 766 727 734 758 836 859 844 820 750 789 758 781 805 813 789 742 742 766 781 797 820 828 836 773 773 781 789 789 750 750 805 828 859 891 852 828 813 820 828 836 844 820 820 820 781 789 781 797 805 805 828 813 789 750 773 789 797 773 781 789 805 820 828 836 844 820 836 844 836 828 805 758 789 789 789 789 805 781 719 727 727 773 797 750 781 820 797 805 813 836 805 781 797 828 820 852 820 836 820 828 805 836 836 836 781 805 789 789 789 750 758 766 789 805 805 805 750 742 750 789 813 828 844 797 758 750 750 766 766 766 758 766 758 758 805 789 797 813 797 797 781 773 773 789 789 781 813 836 828 805 820 813 789 797 789 750 773 781 711 734 758 805 805 766 750 789 781 734 734 781 789 758 719 727 703 711 711 703 734 820 852 828 773 719 750 727 750 766 813 813 828 797 758 727 711 711 695 672 664 664 648 633 648 648 656 664 656 688 742 742 758 734 758 734 711 742 750 734 727 750
16786 72192 0.0000 977 922 922 938 961 906 930 961 977 938 906 930 953 914 906 906 930 898 891 922 953 930 906 953 977 922 914 945 961 930 906 922 961 898 922 961 961 961 961 977 953 922 961 984 961 961 938 852 805 844 875 828 789 797 789 773 766 766 750 734 742 742 727 742 766 805 859 930 1000 1016 984 1023 1016 1000 961 977 1016 1047 938 930 938 938 922 992 1031 953 984 1031 1031 945 938 961 969 1016 938 820 906 922 1039 914 898 1008 1109 1016 914 977 1078 1047 961 1016 1000 969 1008 1008 1039 1000 969 1008 1039 977 1016 1031 1000 945 977 992 1000 977 938 992 1000 961 969 1031 1039 977 1008 1023 1023 969 961 969 961 922 891 922 961 914 875 922 945 914 883 969 984 945 914 953 961 922 875 914 945 938 914 969 1031 1008 938 961 992 984 938 938 1023 1008 953 1039 1039 969 1031 1086 1023 945 1031 1008 1000 1008 1039 992 984 1023 1016 992 953 977 1016 977 938 977 1000 945 930 961 1008 953 930 969 945 891 867 906 977 938 922 984 992 945 961 969 1000 938 930 930 922 875 914 1039 1016 953 1039 1031 969 922 1055 1109 1047 1063 1039 1063 969 1039 1055 1000 1016 1008 1016 938 914 930 930 914 875 977 1000 953
16786 100864 0.0000 797 805 852 867 836 859 883 852 820 844 859 820 828 859 828 773 781 828 836 805 805 781 781 742 742 820 891 836 859 930 969 938 906 938 922 867 867 883 852 820 844 906 914 859 875 891 859 828 867 898 852 828 875 875 836 859 891 875 859 898 891 852 883 914 859 875 898 875 859 898 891 859 891 898 844 906 922 867 867 906 891 852 922 930 883 914 938 891 914 930 852 781 805 891 891 836 867 883 867 852 914 906 867 922 922 875 891 930 867 813 844 883 867 891 953 898 883 867 844 813 844 836 781 773 852 875 844 844 813 766 805 813 781 836 883 836 820 852 852 820 820 852 836 813 852 875 828 828 852 859 813 844 875 859 813 852 875 867 828 859 883 836 844 875 836 805 844 859 828 828 875 836 828 867 898 852 797 758 742 766 727 711 781 867 828 797 852 875 836 820 859 883 836 859 883 852 836 867 836 805 844 859 852 844 906 891 844 891 883 813 766 766 805 773 773 867 891 852 883 922 883 891 922 891 859 906 898 844 891 922 875 898 914 883 883 898 875 836 875 883 836 867 891 844 867 891 844 844 875 891 867 906 906 852 891 930
16795 28160 0.0000 633 633 602 648 664 711 727 766 750 789 758 773 727 727 680 695 742 695 680 734 711 711 750 781 727 766 734 695 672 688 688 664 688 664 672 703 656 703 648 727 703 703 680 664 695 734 719 719 695 703 703 664 711 656 727 719 742 695 766 742 719 664 734 672 711 688 734 711 648 703 703 688 688 656 680 648 617 680 609 688 680 695 680 703 703 727 680 734 719 695 703 734 711 695 695 711 766 719 742 742 734 727 688 695 672 703 695 648 688 648 641 633 633 625 609 617 609 602 578 602 602 602 617 555 578 602 531 586 523 555 555 555 547 555 547 563 508 563 500 578 555 563 570 625 930 828 758 758 695 672 641 648 625 625 617 602 602 586 602 578 594 594 586 609 578 633 578 609 633 586 633 594 570 609 609 641 586 641 586 602 602 602 602 609 617 578 625 570 594 594 633 570 633 586 602 594 594 602 555 625 555 586 578 570 578 609 578 555 609 578 570 578 547 609 586 570 578 586 594 594 594 633 570 594 602 594 586 578 602 539 594 563 563 531 586 570 563 547 586 539 563 586 531 586 516 563 594 570 570 539 594 539 594 563 570 570
16795 56832 0.0000 852 938 984 1031 938 969 1031 1016 969 1078 1102 992 1016 1008 945 914 992 992 969 1016 1078 898 961 1070 1016 914 1000 1039 1016 938 1031 984 891 945 1000 1008 930 953 969 922 875 922 945 883 859 1008 1031 906 914 1039 1008 914 1000 1055 1016 961 1078 1078 1000 930 1008 1000 898 961 1195 1125 1023 1148 1133 1055 953 1031 1055 953 1039 1063 1008 922 1031 1063 891 852 914 992 898 867 984 1109 1023 1156 1180 1102 1000 1117 1102 1008 1063 1125 1047 969 1086 1078 1047 961 852 898 1000 961 969 1117 1047 977 1117 1063 1000 1156 1141 1023 1102 1094 1000 1047 1078 992 891 977 1039 1000 1094 1148 1063 1008 1078 1086 977 1039 1117 1008 898 1016 1078 1016 977 1078 1000 883 953 1039 938 953 1078 1016 906 1070 1094 977 1047 1117 1047 1008 1078 1016 945 1000 1086 1000 961 1109 1109 1016 1086 1063 953 1016 1055 1023 961 1023 1133 1055 938 1016 1102 1047 953 1102 1109 984 914 1023 1078 945 922 1031 1094 1008 906 1008 1063 961 930 1078 1094 969 1031 1078 1031 922 977 1000 992 945 969 1102 1070 992 1039 1117 992 914 1086 1094 961 1016 1094 1000 906 1070 1141 1023 1133 1203 1070 1102 1164 1109 977 1070 1133 1070 938 1031 1102 1000 1039 1141 1094 1000 1086 1109 984 953 1125 1094 969 883
16795 85504 0.0000 680 672 648 641 648 648 641 648 641 625 625 633 625 617 633 648 688 766 781 781 781 781 750 727 711 711 711 711 695 703 719 734 719 711 711 734 719 711 719 727 719 711 711 719 727 695 695 703 703 711 703 711 742 750 758 813 789 813 758 781 773 734 750 781 789 742 742 734 703 695 719 742 742 719 727 742 742 742 719 750 789 820 789 758 797 820 844 797 820 836 828 781 813 836 867 813 813 805 797 742 742 727 727 742 742 750 797 797 773 766 766 742 711 734 750 789 773 820 844 844 805 797 742 711 758 758 758 773 797 852 813 820 844 805 805 820 797 805 789 797 797 758 742 773 773 766 742 711 727 727 742 727 742 758 813 844 805 766 758 734 703 695 695 680 672 664 656 664 664 656 656 680 680 688 695 688 703 734 773 781 750 734 711 727 719 734 703 719 711 703 719 711 734 734 703 727 711 703 688 688 695 680 680 664 664 648 633 633 617 617 609 609 609 609 609 617 609 625 633 664 680 680 672 719 727 711 734 750 758 719 727 734 750 719 711 719 719 695 695 711 742 719 719 766 781 742 742 750 766 734 742 742 711 711 719 703
17052 27392 0.0039 922 914 859 859 820 781 797 836 859 828 820 859 875 820 852 859 898 852 938 1023 898 938 1008 1008 883 906 938 859 516 984 758 742 734 719 703 688 695 703 672 680 672 672 664 664 648 648 648 648 641 633 648 672 695 828 813 867 953 922 883 813 820 773 758 766 758 781 789 750 773 797 852 891 820 828 859 828 781 766 781 750 742 781 766 781 781 750 766 727 734 734 719 719 727 711 727 750 758 750 703 711 711 695 695 695 805 930 828 836 867 859 867 781 836 852 852 891 867 883 898 867 914 836 859 836 844 867 859 844 828 859 781 813 820 836 797 805 828 805 859 820 797 781 852 875 828 852 789 789 820 789 805 852 836 820 844 859 805 797 820 844 797 820 836 805 820 859 859 836 789 789 742 750 742 727 727 766 781 805 844 820 797 820 859 883 852 836 859 836 875 906 867 914 961 977 922 828 836 859 852 859 906 891 891 898 852 844 883 852 805 797 836 828 844 930 938 914 961 938 938 859 914 961 891 938 961 883 891 977 875 922 945 875 898 930 859 813 867 859 852 836 828 844 813 828 820 836 891 891 828 828 852 852 820 844 836 820
17052 56064 0.0000 992 1094 1102 1023 1055 1094 992 1031 969 945 977 992 930 953 922 914 875 891 891 891 867 906 961 984 1000 1000 1016 1031 1000 1063 1016 1000 1125 1016 1000 1023 977 1047 984 945 883 867 859 836 805 797 828 859 867 906 953 906 945 1008 977 930 1000 1023 953 953 1008 953 1016 1016 961 1000 961 922 930 922 891 875 898 883 859 875 859 859 844 852 867 828 852 875 852 820 844 891 875 844 875 875 875 875 922 969 953 1000 1000 969 1000 867 922 977 945 1008 984 945 984 1008 953 984 906 867 883 883 852 852 891 875 852 859 891 953 922 945 1031 1031 938 953 945 930 1125 1234 1203 1234 1211 1148 1117 1102 1117 1023 1008 1000 1063 1016 930 953 938 914 945 945 914 938 922 883 914 914 898 945 984 977 1078 1039 1039 1023 992 1063 1016 1016 1016 953 1047 1156 1031 1094 984 1008 1031 961 1008 1031 992 1031 984 1031 961 977 992 945 1016 1070 953 984 1023 1055 1016 1047 1086 1047 1086 1016 1016 1047 1016 977 1055 1023 1031 1031 961 1031 1055 969 1023 1055 984 1000 1016 953 1000 969 977 961 1000 1023 961 1000 984 961 977 953 922 945 914 875 859 852 859 836 836 844 852 836 859 953 938 875 898 906 922 883 898 961 1047 1086
17052 84736 0.0000 688 688 695 711 695 711 688 695 695 727 766 758 719 734 719 695 695 711 719 742 773 758 766 789 766 758 781 750 789 781 797 852 836 844 828 820 891 859 836 852 797 766 789 766 750 742 750 727 750 719 727 719 719 719 719 719 742 758 773 773 789 773 742 750 727 703 742 750 750 750 727 727 734 727 750 766 781 766 766 773 797 773 813 820 797 813 805 805 828 867 820 836 852 813 805 781 750 742 742 742 742 734 727 742 750 773 781 758 781 758 758 742 734 734 734 727 719 734 742 734 758 742 781 766 750 742 734 742 727 742 727 742 719 742 719 758 695 719 727 711 734 719 734 742 750 742 750 773 750 781 781 742 734 727 727 711 727 711 727 703 719 734 758 727 727 734 742 727 742 742 727 734 734 719 711 703 719 711 719 719 703 719 688 711 703 703 695 688 680 680 680 688 672 688 664 680 664 680 672 664 672 680 680 672 680 695 703 688 695 688 680 680 680 680 672 672 672 656 672 656 656 664 680 656 680 672 680 672 664 672 672 688 672 672 680 664 680 680 680 695 695 672 688 672 680 664 672 680 672 680 672 680 688 672 680 664
17453 26112 0.0000 609 594 594 602 602 609 609 617 617 648 633 633 664 656 656 688 664 688 695 664 711 711 672 664 633 602 594 594 586 570 586 617 641 664 633 602 609 547 586 570 586 578 602 633 656 648 648 648 672 656 688 695 680 656 711 672 672 680 672 641 711 664 633 648 633 602 594 609 633 633 688 688 695 641 664 625 656 656 656 688 680 664 641 633 617 602 664 680 656 641 742 766 719 688 672 688 688 648 641 656 633 633 633 617 641 695 742 734 688 656 648 641 633 648 633 641 641 625 648 664 633 664 656 633 633 617 625 625 641 625 617 664 648 641 609 641 609 617 602 609 586 602 641 633 633 594 602 602 602 602 602 617 656 625 641 672 641 625 602 586 586 656 609 609 625 641 625 594 602 578 602 602 594 594 594 602 609 602 602 586 578 586 602 602 602 602 617 641 633 625 625 617 578 586 586 586 570 570 570 547 547 570 578 563 586 602 602 641 641 625 680 633 648 648 594 609 570 578 594 594 594 594 586 586 586 594 609 609 594 625 602 633 617 625 602 617 625 609 609 609 609 625 625 633 641 633 625 641 633 609 625 641 602 617 602 602
17453 54784 0.0000 711 680 781 781 719 750 758 758 750 719 695 641 664 648 617 625 641 680 672 750 852 859 797 797 805 727 727 742 750 766 727 719 734 750 664 641 672 664 719 742 680 711 688 664 641 648 625 617 633 625 609 672 656 672 711 680 711 727 711 695 688 727 672 672 664 656 688 711 703 711 680 680 656 656 695 656 711 695 664 664 633 656 625 609 609 594 602 594 602 617 617 617 641 664 656 648 633 695 656 656 664 688 672 688 672 656 641 633 609 609 617 617 648 641 664 641 633 648 625 664 641 617 633 609 625 617 625 641 641 625 672 633 656 641 648 625 633 617 625 625 625 609 625 617 617 602 617 586 602 617 578 602 594 602 586 570 570 578 539 555 578 570 594 633 633 609 602 578 586 563 531 578 531 570 578 609 688 688 758 734 711 672 703 711 711 758 703 695 680 664 633 609 609 578 563 609 609 641 664 758 867 828 813 820 766 711 719 750 781 750 680 703 680 641 633 633 648 781 734 719 727 789 773 742 719 711 688 695 664 672 695 695 672 711 750 766 719 719 695 695 656 633 609 625 555 602 594 656 742 773 852 773 766 766 695 695
17453 83456 0.0000 797 789 813 852 805 797 813 828 828 797 813 797 828 789 805 844 805 797 805 852 805 797 820 852 859 805 828 836 852 813 773 813 828 773 781 805 852 813 820 828 859 844 797 813 828 844 797 805 813 852 805 805 813 836 797 805 797 828 789 766 797 805 781 766 758 781 758 758 781 813 805 797 883 906 828 820 852 844 844 813 828 883 813 805 844 867 844 820 867 898 828 844 836 867 813 813 820 844 820 781 789 828 820 781 797 828 836 766 781 805 828 781 781 789 852 813 797 844 844 813 789 813 852 805 781 828 820 805 781 797 820 836 773 797 789 828 805 766 805 820 813 789 797 844 836 813 820 859 844 805 852 844 813 813 836 875 813 813 805 844 813 773 805 820 789 781 781 836 781 766 805 828 820 828 836 891 828 813 859 875 820 789 797 828 820 828 797 836 875 820 797 805 852 805 773 805 828 836 773 797 813 836 789 773 797 813 813 789 805 844 805 797 805 852 852 820 797 805 836 789 766 813 758 781 742 703 711 711 711 695 672 719 672 664 703 820 813 773 734 742 852 1031 1000 1023 1039 1023 1008 1016 992 1016 1016 1023 1000 1008 1016 992
18177 11520 0.0000 570 586 586 586 563 586 625 609 617 633 617 594 641 625 641 633 633 617 625 656 648 664 875 750 719 711 711 703 680 742 773 711 742 719 688 680 656 633 609 625 602 641 648 641 688 688 688 703 680 664 656 633 656 688 688 672 680 680 656 680 648 648 688 664 664 680 680 688 688 688 688 766 734 680 633 641 617 625 617 641 648 727 703 758 844 742 742 688 672 641 617 625 625 695 906 789 734 773 688 672 664 695 883 758 789 781 797 781 773 758 758 750 727 773 703 719 688 695 672 695 688 688 672 703 711 922 805 766 742 688 672 641 648 633 648 672 680 664 672 711 688 703 664 656 625 625 602 625 602 594 617 586 641 656 602 641 648 633 648 641 648 664 648 633 664 695 797 750 719 680 719 688 758 859 836 766 781 766 766 711 742 758 734 773 750 719 727 742 711 703 695 695 688 664 688 695 688 680 680 680 688 703 742 703 742 727 711 688 695 695 703 773 781 711 688 648 633 641 672 813 781 758 773 766 781 766 766 750 734 680 656 672 695 703 773 820 781 742 734 711 656 695 672 695 719 711 719 906 789 797 766 711 742 672 656 609
18177 40192 0.0000 633 664 656 672 688 664 648 633 656 664 672 641 664 656 664 633 648 656 656 680 656 641 648 625 641 648 680 711 680 688 680 672 656 656 672 664 641 648 656 656 656 680 664 680 672 641 625 625 594 617 656 625 609 602 602 586 602 609 594 563 617 555 602 570 555 570 555 563 547 570 539 547 563 539 563 547 547 555 555 563 539 570 555 555 539 555 578 563 547 563 555 539 555 555 547 531 555 563 539 547 555 539 547 539 539 539 523 555 516 539 547 523 516 539 508 531 508 531 500 531 516 500 523 516 500 508 531 492 508 508 508 508 523 516 492 508 516 516 484 508 516 492 508 500 500 484 492 508 484 500 484 508 484 500 477 492 492 500 477 508 469 484 484 500 469 484 477 484 484 484 469 477 477 477 477 484 484 477 477 477 477 461 492 461 477 461 492 469 469 469 469 469 469 453 477 469 469 469 453 469 484 469 469 469 469 477 477 469 469 469 469 477 469 445 469 477 453 461 453 477 469 461 445 469 445 477 445 477 438 484 445 461 445 461 461 438 461 461 453 453 438 469 453 445 438 461 445 445 461 453 453 453 430 469 445 438
18177 68864 0.0000 578 578 586 578 594 578 570 570 555 570 578 570 570 586 586 625 633 625 594 602 586 578 563 563 563 594 586 586 594 570 586 570 602 555 609 586 586 563 594 609 586 586 578 555 594 570 586 570 578 586 570 570 578 586 586 594 609 586 570 586 578 617 609 594 586 609 570 609 586 594 594 594 594 594 594 578 594 594 602 625 602 594 609 625 609 625 609 594 586 586 555 563 570 570 586 570 617 617 609 617 617 625 617 586 594 594 578 586 586 617 602 609 602 594 578 578 570 609 570 594 648 648 633 625 609 578 594 570 570 563 563 570 555 570 563 570 547 570 539 547 555 578 563 570 578 570 586 594 578 594 570 586 586 594 586 602 594 594 602 594 570 594 578 578 586 602 578 617 586 602 578 578 578 594 578 633 625 625 641 641 648 617 633 617 625 594 625 617 617 617 594 617 594 594 602 594 609 617 609 586 602 586 609 586 578 586 586 586 586 602 594 617 617 648 656 656 664 680 664 672 648 688 680 680 664 672 680 648 656 672 664 648 648 672 672 648 656 680 648 648 641 641 648 648 656 641 664 664 664 680 648 664 656 648 648 648
18177 97536 0.0000 844 852 852 797 734 750 750 766 828 883 820 820 820 766 758 773 750 773 773 1125 938 891 898 859 891 891 859 891 891 867 875 906 867 867 867 836 750 758 1047 852 867 898 867 867 914 852 852 898 836 852 867 875 852 836 813 742 750 750 789 1117 906 898 852 836 875 813 781 773 711 750 789 1133 945 875 859 844 875 859 805 805 750 773 875 961 922 906 867 859 875 867 844 844 883 859 813 820 875 859 867 836 852 867 852 820 883 875 859 867 898 875 859 867 891 859 852 883 844 859 867 883 852 852 875 844 836 836 727 742 719 1094 891 836 852 781 750 750 758 828 789 766 820 1047 875 867 758 734 734 750 773 727 766 1086 984 852 844 891 844 820 852 859 852 852 883 906 867 867 922 906 883 898 906 906 852 844 891 828 875 867 930 922 914 953 906 875 898 883 859 852 875 836 836 898 883 867 914 898 852 875 891 844 844 883 844 844 867 883 836 844 891 898 891 875 898 914 898 859 883 859 844 781 781 758 750 766 773 727 719 711 766 750 719 750 727 766 719 742 789 789 727 742 852 1063 891 891 891 867 828 844 898 867 859 844 859 875 875 852
18184 10496 0.0000 727 789 844 891 820 867 828 781 781 789 789 742 750 750 750 758 742 711 719 742 734 742 719 734 727 734 719 711 711 680 719 734 711 766 773 773 773 719 766 758 766 719 758 734 734 719 695 672 664 664 648 656 656 656 648 641 656 648 648 680 641 695 688 680 695 711 703 719 734 719 734 703 742 758 750 742 766 742 742 836 875 875 742 766 750 703 719 703 703 711 727 742 758 742 820 844 867 859 836 805 805 797 805 773 766 719 742 750 758 734 719 734 758 766 781 773 766 758 758 766 766 766 734 719 703 703 703 711 711 680 680 672 656 680 711 742 766 773 766 742 758 766 766 711 688 688 672 656 648 656 648 648 664 695 695 680 711 719 703 695 719 727 711 750 773 766 805 805 797 773 805 797 773 805 813 766 820 750 836 875 867 773 789 750 758 766 789 820 813 742 789 781 773 758 797 805 836 844 813 789 734 688 672 719 766 836 875 859 813 813 813 813 813 844 852 852 828 750 781 773 797 781 773 758 781 781 766 797 773 734 758 750 734 742 695 734 734 727 719 773 789 820 820 836 773 797 781 758 742 688 719 711 695 727 758 711
18184 39168 0.0000 773 797 789 805 766 789 781 820 844 859 875 805 805 781 766 758 758 750 734 719 711 719 734 781 828 852 859 828 828 820 766 773 766 734 758 766 789 781 719 766 766 797 805 820 805 844 875 891 898 828 844 820 828 828 844 867 867 844 813 828 836 805 820 820 852 859 844 828 820 836 789 797 820 852 875 867 844 813 766 773 766 758 789 813 906 938 852 852 828 836 789 781 773 766 820 828 867 820 891 867 828 828 813 805 781 789 797 789 766 781 758 781 789 805 836 828 836 828 813 805 805 820 813 813 820 820 828 797 805 828 844 813 805 789 766 758 773 766 758 750 766 766 727 742 719 727 711 719 727 734 750 750 789 820 828 820 813 813 789 781 773 773 727 727 711 727 750 773 805 828 836 867 867 875 820 805 797 789 805 766 758 750 758 781 773 797 805 781 758 750 750 742 797 813 805 805 773 797 805 813 797 750 758 766 766 742 703 711 711 711 711 727 742 781 813 844 867 859 820 813 789 805 789 828 813 844 820 852 898 914 914 859 883 859 813 828 805 789 797 813 797 820 836 820 836 828 805 820 828 844 852 805 813 805 781 773
18184 67840 0.0000 648 656 672 664 664 648 648 641 625 617 602 602 594 586 570 578 578 578 594 609 609 609 609 633 633 633 617 617 602 609 625 609 625 625 648 648 648 633 641 648 641 648 648 656 648 641 617 609 617 609 594 594 594 602 594 586 586 578 586 602 594 602 602 609 609 594 594 594 594 594 594 586 602 594 602 617 602 602 609 609 609 609 602 609 625 633 625 617 633 641 641 625 617 617 609 617 586 594 594 594 602 586 609 617 625 617 617 617 617 602 594 609 609 617 617 609 602 594 586 594 594 594 586 594 586 602 594 617 641 633 625 633 617 609 594 578 563 563 555 555 570 586 594 602 609 625 633 641 633 633 625 625 609 602 578 602 609 586 594 570 578 570 570 570 570 563 570 578 578 586 578 578 578 570 586 570 586 594 602 594 602 602 602 602 594 594 602 586 586 563 563 555 555 555 555 578 594 602 609 609 602 602 594 602 594 578 578 563 570 563 563 563 563 578 563 578 578 570 586 586 578 578 570 555 555 555 555 547 555 563 570 555 586 586 594 586 586 594 578 578 563 578 594 625 648 648 609 625 617 625 609 602 594 578 570 570
18184 96512 0.0000 797 813 813 805 813 797 773 813 828 836 852 820 805 805 813 828 828 836 813 797 813 844 867 875 883 836 805 828 844 875 891 859 844 852 867 883 898 898 844 820 852 875 875 883 844 828 828 836 836 852 852 797 781 789 805 852 883 859 844 883 922 945 914 859 813 820 820 820 820 836 797 773 805 820 852 867 891 844 820 844 867 875 844 820 797 813 844 859 898 914 859 805 844 867 875 883 867 820 836 859 883 891 898 852 813 836 852 867 859 844 805 781 789 789 797 789 781 813 852 883 883 828 797 805 813 820 828 828 813 789 805 828 852 891 859 836 836 867 875 867 836 789 781 797 828 859 898 883 898 859 867 891 906 883 844 828 852 859 859 867 836 820 813 852 867 898 906 875 844 820 836 852 852 852 844 805 797 805 820 828 836 813 805 828 859 867 875 859 844 805 813 820 820 820 820 789 773 781 805 828 844 828 805 828 844 867 875 852 820 781 805 813 844 867 852 805 797 813 828 859 852 844 813 797 820 813 813 828 820 789 766 781 797 820 836 836 797 797 813 836 852 859 820 813 836 844 852 844 813 789 797 820 820 836 836 844
19088 23040 0.0000 641 664 664 648 656 672 695 688 664 680 672 648 656 656 664 648 648 680 680 656 648 656 656 648 648 641 641 641 664 680 656 656 664 648 641 633 656 641 633 648 648 656 680 680 688 672 672 680 672 664 656 672 672 656 672 688 672 672 672 680 680 664 680 703 742 688 633 625 648 695 680 695 703 711 680 664 680 656 664 680 680 656 672 688 703 672 672 688 688 672 672 703 695 680 672 672 672 680 695 711 688 680 703 727 703 719 719 727 711 711 711 719 734 703 703 703 688 680 703 734 711 703 711 727 688 680 672 688 680 680 695 727 719 703 719 703 703 695 695 688 695 680 688 664 648 656 648 648 648 633 602 609 633 648 664 641 656 664 688 664 648 672 680 680 672 656 680 711 695 672 672 680 672 672 695 695 688 688 695 711 703 703 695 688 680 641 672 695 734 734 742 742 719 719 734 734 719 711 711 711 688 672 680 703 703 711 664 664 664 695 656 656 633 602 609 602 609 609 602 609 609 578 586 578 586 578 578 594 602 594 570 570 578 578 570 586 617 664 680 719 727 695 719 711 680 703 672 656 656 641 641 625 617 625 617 609
19088 51712 0.0000 703 750 727 711 727 773 813 758 727 711 727 773 773 750 711 703 727 742 742 695 703 719 750 734 711 695 719 719 734 711 695 703 727 766 758 711 734 805 797 750 719 727 773 758 727 711 727 773 797 750 711 695 727 750 719 703 688 727 734 719 711 695 719 750 758 703 688 711 734 727 711 680 695 727 773 727 719 719 773 750 719 688 703 727 742 727 703 742 773 789 727 688 703 734 750 719 703 695 719 734 750 734 711 742 766 750 711 695 703 727 711 695 688 711 719 727 695 680 703 703 727 695 688 703 719 727 703 695 703 742 758 727 695 703 719 750 734 719 711 695 711 719 711 711 695 711 727 719 711 711 742 742 719 695 727 734 758 703 711 734 820 797 727 711 703 750 766 719 688 703 711 734 711 688 703 703 742 734 703 695 719 727 719 680 711 719 734 703 711 734 781 750 734 719 734 789 766 719 727 758 797 734 695 695 727 750 727 711 695 719 727 727 695 711 711 727 711 680 711 734 742 742 711 711 719 727 688 695 703 758 750 711 680 703 711 680 688 680 711 742 734 703 719 727 742 719 719 695 727 750 750 711 727 758 773 727
19088 80384 0.0000 922 906 891 906 914 914 930 930 930 914 930 930 820 805 891 914 1047 1039 1000 961 1047 1016 977 1023 1008 945 945 977 859 852 930 883 867 891 938 875 836 797 852 836 828 789 766 781 766 758 734 742 758 789 789 758 766 750 734 727 719 695 688 688 680 664 656 664 656 648 664 648 656 648 648 641 648 656 648 664 680 688 695 719 750 844 883 883 836 820 875 859 867 797 789 773 813 828 797 781 789 859 859 805 781 836 867 844 805 859 922 922 867 844 898 953 906 852 797 813 867 891 836 828 898 953 891 820 813 828 828 797 797 836 953 883 828 805 875 898 930 875 883 883 914 867 875 906 914 875 852 883 883 898 828 836 930 906 906 836 820 852 875 891 813 781 781 820 898 859 898 1000 992 961 867 828 859 922 930 859 836 828 813 766 750 734 727 719 719 727 734 5008 680 672 664 672 656 672 656 641 648 641 625 633 625 625 625 625 641 633 648 719 750 750 750 766 805 844 813 789 820 852 883 852 828 836 852 852 820 805 805 805 766 773 781 789 758 719 734 727 719 688 688 695 711 734 727 734 781 836 828 742 727 734 813 766 703 703 742 766
19090 11264 0.0000 727 727 695 727 719 727 703 664 625 625 602 609 609 602 602 602 586 602 625 641 703 680 750 773 820 828 820 797 781 773 789 813 836 828 820 820 805 805 789 820 758 797 813 781 836 828 836 773 758 758 781 813 742 734 727 781 797 813 758 734 758 727 727 758 789 797 836 844 844 773 758 750 828 844 820 805 813 828 766 750 742 742 734 711 758 758 797 813 805 758 797 781 773 742 750 758 734 656 680 703 727 742 719 672 680 703 719 719 711 672 672 680 688 703 711 703 711 719 719 695 750 742 797 750 797 828 820 797 805 781 766 734 727 734 711 719 727 719 703 688 695 711 703 656 664 680 656 734 766 820 836 844 781 734 727 711 695 688 703 695 711 680 672 688 703 742 742 766 797 805 766 781 773 773 758 742 719 711 688 680 672 680 664 641 641 672 695 750 758 781 773 781 781 750 695 664 664 672 680 680 672 664 656 648 672 680 695 703 695 703 680 672 656 656 664 656 680 703 719 727 734 711 719 734 727 672 664 727 719 695 719 766 781 781 805 797 766 758 742 734 727 695 664 672 672 680 680 703 711 719 711 711 742 734 734 766
19090 39936 0.0000 930 906 938 953 961 930 938 969 953 922 945 953 961 930 945 961 953 938 969 984 953 961 969 1008 969 961 977 977 938 945 953 945 953 984 992 953 938 945 938 898 914 922 898 906 945 969 953 945 969 977 945 945 969 938 922 945 961 906 891 883 867 844 875 898 883 859 883 914 906 883 906 938 961 945 945 969 977 938 961 953 930 922 961 961 969 938 977 992 992 977 953 961 969 930 938 969 977 938 961 984 1000 953 930 945 969 977 930 922 930 969 945 922 961 992 1000 977 961 984 977 984 945 914 938 945 930 906 953 969 1000 984 945 969 984 969 938 953 984 977 945 953 953 953 922 953 953 938 914 930 945 938 891 930 938 875 836 797 742 750 750 750 727 719 719 727 766 813 852 828 828 836 867 852 813 844 867 898 883 844 898 930 953 938 922 945 953 969 930 922 938 953 977 938 938 953 977 984 984 945 953 977 992 1008 992 945 922 914 859 828 844 891 938 906 914 953 977 1000 961 922 938 953 961 906 898 922 953 961 992 953 953 961 984 961 930 945 961 930 914 945 961 1000 1008 992 961 977 992 984 945 945 961 984 992 1016 977 945 969 992
19090 68608 0.0000 781 797 852 828 859 844 844 828 789 789 813 859 898 938 914 938 953 953 922 914 930 914 898 898 938 945 945 922 945 938 953 914 930 945 945 914 906 906 938 945 922 922 930 961 930 914 930 938 898 844 844 844 852 836 852 883 906 938 906 906 922 938 938 898 914 930 953 938 914 922 930 945 938 922 953 977 1000 961 922 930 922 922 875 859 875 883 898 852 875 898 938 930 891 906 930 930 891 844 852 852 859 844 820 828 844 875 906 922 906 875 906 914 922 914 875 875 891 891 883 883 914 953 977 961 891 859 867 891 891 883 867 914 945 984 977 953 977 992 992 961 898 906 922 930 883 859 867 867 891 867 852 875 906 914 883 883 898 906 898 867 867 852 867 820 781 766 750 727 734 773 852 883 875 906 914 906 875 875 891 898 906 867 875 898 922 906 883 898 906 930 914 867 891 898 914 891 867 883 898 906 867 883 883 875 852 852 875 906 906 875 867 883 922 930 906 852 844 867 883 898 891 891 906 914 883 859 891 914 922 891 914 922 922 898 867 883 914 930 945 922 914 906 914 898 867 852 875 875 883 859 898 930 961 930 914 938
19093 16128 0.0000 1000 1031 1008 969 992 969 938 945 1000 1047 1008 1031 1039 1047 977 1008 1000 992 945 945 977 969 914 930 969 977 945 953 1008 992 938 938 969 953 930 891 891 930 938 906 844 930 992 961 859 852 813 797 766 750 781 781 820 883 945 938 938 1000 945 914 828 813 781 773 773 758 773 789 844 852 906 906 914 867 797 758 828 844 844 852 836 805 836 891 953 984 1000 969 969 945 945 930 875 844 828 820 813 813 836 906 922 914 844 820 828 813 820 789 773 789 766 758 789 875 977 1008 984 914 922 930 914 891 875 906 906 859 867 945 961 953 930 898 875 906 938 984 969 1016 1023 992 977 992 992 977 953 945 1008 1031 969 930 969 1000 1008 938 938 953 984 984 953 984 984 938 898 891 945 953 945 891 898 906 906 867 891 969 1031 1008 1039 1016 922 852 844 852 844 883 898 984 1047 1047 992 1016 1008 984 930 945 953 938 898 914 953 945 922 953 953 945 914 953 953 969 977 930 969 953 969 891 867 867 906 961 953 930 1063 1047 984 914 859 859 844 813 789 828 805 805 766 758 789 844 906 875 836 906 945 938 906 930 961 953 914 898 914 922 844 836 820 805 797 797
19093 44800 0.0000 1156 1227 1141 1219 1164 1133 1047 1078 1164 1156 1055 1078 1094 1055 1023 1055 945 875 859 844 820 828 875 914 969 1000 1008 1086 1070 1078 1000 945 953 977 930 922 906 891 914 922 1016 1039 969 1000 1016 1078 1000 938 883 891 859 844 844 867 836 820 828 820 836 836 805 813 820 805 805 820 820 805 813 836 867 945 1023 1148 1156 1156 1172 1188 1133 1016 1078 1094 1063 969 1008 969 953 906 1000 1070 1063 1000 1125 1148 1086 1000 1055 1102 1094 1000 1078 1078 1055 961 1031 1063 1070 1008 977 1016 1016 977 1016 1047 1078 1023 906 883 867 859 828 859 875 875 875 961 1109 1250 1242 1258 1250 1195 1094 1141 1172 1102 1094 1133 1117 1047 1086 1156 1133 1055 1094 1141 1109 1055 1133 1102 1047 969 1031 1070 992 945 1008 1070 1023 1016 1094 1117 1086 1203 1188 1125 1047 1109 1078 1016 1016 1078 1070 1023 1070 1086 1133 1031 1094 1125 1078 969 984 977 992 992 1117 1250 1227 1172 1250 1250 1141 1172 1180 1109 1016 1078 1125 1141 1016 1094 1109 1109 1016 1172 1211 1141 1031 1133 1156 1047 1039 1055 1070 984 984 1008 1078 1055 1000 1078 1117 1055 1008 1070 1094 1063 1023 1102 1156 1109 1016 1078 1125 1031 1008 1063 1078 969 1039 1078 1047 1047 1117 1117 1063 992 1047 1086 1016 1016 1180 1188 1109 1133
19093 73472 0.0000 961 938 914 930 977 953 883 875 852 828 805 773 781 813 859 938 1016 977 1031 1039 1047 1016 969 992 1008 1023 1000 953 969 875 852 836 813 805 797 805 820 852 906 891 852 875 938 930 1008 1008 1063 1109 1125 1133 1117 1102 1063 1070 1063 1094 1102 1063 984 938 984 1023 953 914 961 984 938 953 984 1039 953 945 961 977 1039 1008 1055 1125 1133 1039 1031 1078 1086 1039 1016 1047 1031 992 906 891 844 820 805 781 805 828 891 922 875 914 953 938 906 898 906 867 891 906 906 922 914 922 930 938 945 953 1000 1023 1063 1094 1094 1063 977 938 977 961 891 898 938 977 984 930 945 1016 1047 1008 945 969 1016 1023 969 945 992 1039 1047 969 1000 1031 1047 992 992 1031 1055 1086 1000 1070 1133 1141 1078 992 1016 1039 984 1008 938 883 836 875 906 922 945 930 984 1078 1063 992 1008 1047 1055 1047 969 992 891 852 836 820 820 844 836 859 891 891 828 938 883 859 836 813 820 797 797 813 852 914 1016 1125 1195 1203 1203 1188 1164 1133 1117 1117 1102 1094 1078 1063 1047 1047 1117 969 867 867 844 797 797 773 758 758 758 750 773 781 805 820 844 867 859 875 984 1180 1227 1188 1164 1117 1031 898 859 820 805 805 805 813 844 906
19140 27136 0.0000 563 570 586 625 648 625 633 625 602 594 602 594 594 602 625 617 586 586 586 570 563 570 570 586 609 664 711 742 711 680 664 648 625 617 594 625 672 672 656 734 789 727 703 773 813 773 703 688 742 758 773 719 711 734 727 672 680 680 695 672 656 664 680 633 633 664 695 727 719 680 656 664 680 727 656 695 742 695 703 742 766 719 680 719 742 766 711 695 727 742 703 672 688 695 719 695 641 656 680 711 656 648 656 656 656 648 656 656 688 680 656 641 680 688 680 664 680 711 688 656 648 633 633 625 633 656 656 656 719 750 727 688 719 719 688 672 688 711 680 664 680 656 641 633 633 641 625 625 625 648 617 609 625 625 617 641 664 648 617 625 625 594 594 594 602 609 609 625 648 633 680 695 672 664 680 656 641 648 672 648 648 703 703 656 656 664 680 695 688 656 648 641 641 641 633 625 625 633 625 609 617 641 633 617 633 625 625 617 617 609 594 594 602 586 586 586 578 586 578 578 586 570 570 555 563 555 555 555 563 563 570 570 578 586 578 578 586 570 570 563 570 563 563 563 555 563 563 563 555 563 555 563 555 555 555 539
19140 55808 0.0000 781 734 727 750 781 797 805 805 828 844 859 781 750 750 781 813 820 883 891 875 875 805 797 836 805 836 844 867 859 820 813 766 766 781 789 758 727 750 836 781 773 828 852 844 875 867 781 750 797 828 852 875 875 859 820 820 836 867 867 914 813 805 773 750 711 695 695 719 758 750 742 711 734 734 773 836 875 906 891 781 766 813 789 797 758 711 719 734 805 828 844 813 766 750 750 773 766 766 766 742 789 844 898 875 844 766 766 820 875 898 820 781 820 859 938 914 883 867 813 781 750 758 797 891 992 1000 992 992 938 836 773 742 766 828 773 789 844 813 875 883 898 828 797 758 766 727 727 695 680 703 789 828 844 859 852 883 859 844 844 797 797 781 742 758 797 813 797 781 727 719 734 813 766 734 828 867 898 859 844 797 773 742 711 711 711 773 867 898 859 891 945 945 961 945 938 922 875 836 828 797 781 742 742 773 813 883 844 914 906 844 773 742 781 844 891 797 836 883 875 898 906 820 836 852 805 828 828 836 820 797 766 734 719 703 758 781 813 828 828 813 805 789 797 758 742 773 797 773 758 734 750 758 773 734 727 766
19140 84480 0.0000 703 703 672 680 719 672 664 672 656 656 680 703 719 695 719 734 742 719 734 773 867 805 867 953 938 836 820 813 797 820 797 750 734 742 758 734 727 789 883 875 805 789 875 930 898 797 758 781 820 805 773 875 1102 1063 859 820 883 906 859 797 805 906 953 906 813 859 922 914 805 742 742 727 711 695 695 758 883 891 844 797 813 898 961 977 859 789 867 984 1023 883 813 898 953 961 906 820 859 914 992 977 852 789 820 867 867 781 781 867 898 813 781 867 898 867 797 820 930 953 867 797 859 898 922 844 813 859 898 852 797 805 844 852 789 758 781 836 867 805 781 805 852 859 789 766 836 883 875 789 773 797 828 766 734 719 703 695 688 734 734 703 695 727 734 750 711 680 5125 625 625 617 609 609 602 594 594 586 570 570 570 570 563 570 570 570 563 570 570 602 602 594 586 594 648 766 766 695 680 797 789 742 734 773 758 750 719 727 766 750 711 688 688 680 695 703 703 758 750 734 711 750 734 711 688 688 703 711 680 695 719 719 734 703 703 727 703 688 680 680 695 711 711 703 734 727 719 703 688 656 656 648 633 641 641 656 648 641
19830 16640 0.0000 547 531 531 547 539 547 563 563 570 555 578 570 555 563 539 555 539 523 547 523 539 531 523 547 523 547 531 547 539 539 539 523 547 531 531 523 531 523 516 523 508 516 516 523 516 523 523 523 492 555 523 508 531 531 523 523 539 531 539 547 531 547 539 539 539 531 523 531 523 531 516 523 516 508 508 508 516 523 516 523 516 531 523 523 531 523 523 523 531 523 523 516 523 516 516 523 523 516 531 523 516 523 523 523 516 523 516 516 523 523 531 539 531 539 539 539 531 531 531 523 516 523 523 516 516 516 516 516 523 531 531 531 539 547 555 547 555 547 555 539 539 539 539 523 531 539 539 523 531 539 531 555 555 555 570 570 570 563 570 563 555 555 547 555 555 547 547 555 555 555 563 578 578 578 578 578 578 563 578 578 586 570 578 570 539 563 547 570 563 555 570 570 586 578 578 578 578 586 570 578 578 578 578 570 578 555 570 570 563 578 570 570 570 570 563 547 547 555 555 547 555 563 547 547 555 555 555 563 563 570 570 570 570 586 578 586 578 555 563 555 555 555 539 547 563 594 594 594 563 625 594 578 570 555 555 563
19830 45312 0.0000 609 625 648 664 711 711 719 711 688 656 625 625 609 594 602 602 594 586 602 594 602 586 602 602 594 602 594 602 609 602 602 594 602 594 594 594 586 570 594 617 594 602 609 625 625 633 633 641 625 633 625 617 625 625 641 617 625 609 625 633 633 641 648 641 633 625 625 617 617 609 609 617 625 633 625 617 617 609 602 594 594 602 602 594 609 609 609 617 617 617 641 633 617 625 617 617 617 609 594 594 609 609 617 609 609 609 602 602 586 586 578 594 586 586 570 586 594 594 609 594 594 609 602 609 602 602 594 594 578 578 555 594 617 625 625 625 641 656 656 633 641 641 641 602 617 656 641 688 641 641 625 617 617 617 594 602 594 594 586 602 594 594 586 609 602 602 602 617 641 656 664 633 625 633 625 609 617 617 602 625 617 625 586 594 578 609 664 680 641 656 633 609 609 609 602 594 609 594 602 609 602 602 609 609 586 594 594 586 594 578 594 594 586 594 594 586 586 586 594 602 602 617 617 617 609 602 602 617 609 594 602 594 602 594 602 609 609 594 594 586 594 594 578 586 586 570 555 586 586 594 578 578 578 570 570 570
19830 73984 0.0000 781 844 867 867 836 891 867 875 805 836 852 852 844 797 789 813 781 805 758 766 781 813 859 797 828 836 836 820 797 820 820 836 766 789 836 852 844 789 781 836 836 844 805 766 805 789 805 773 789 828 891 852 859 875 875 844 797 836 805 813 789 766 805 805 828 789 789 781 797 797 781 797 805 820 820 781 844 867 891 867 805 852 852 820 797 828 844 828 805 805 789 820 820 758 805 789 820 766 797 820 828 859 836 789 836 805 805 766 781 805 828 859 813 789 836 805 844 820 805 875 852 875 813 844 844 859 797 828 813 852 781 805 797 805 797 797 773 773 789 766 766 789 797 805 773 813 805 805 828 789 758 766 789 828 781 805 813 836 820 797 828 852 844 820 820 844 797 797 789 805 813 797 773 781 773 813 828 781 797 836 883 867 844 828 844 867 836 852 883 883 859 836 828 859 844 813 797 805 828 852 836 836 867 867 852 813 852 836 828 828 789 820 820 836 781 773 797 805 797 813 813 852 875 813 805 859 875 867 820 844 836 820 797 813 813 836 836 773 828 852 844 844 805 797 836 805 805 758 805 789 828 813 750 797 805 789
