# physionet r-r rhythm segments, distilled
# source PhysioNet afdb / nsrdb / mitdb, ODC-BY 1.0
# class SinusAfdb
# segment_beats 256
# selection every 40th of 2425 segments in this class
# columns record start_beat premature_fraction rr_ms...
# lead chest, ambulatory Holter ECG - NOT wrist PPG
00735 0 0.0000 1076 1116 1116 1072 1076 1108 1068 1092 1156 1088 1116 1164 1128 1072 1156 1132 1068 1104 1192 1120 1164 1164 1108 1152 1140 1124 1152 1108 1060 1104 1120 1072 1072 1208 1152 1088 1112 1100 1112 1176 1132 1180 1168 1140 1144 1144 1096 1096 1128 1108 1044 1124 1180 1120 1156 1132 1104 1128 1168 1052 1112 1112 1108 1168 1196 1100 1176 1144 1088 1096 1108 1096 1116 1164 1108 1148 1168 1120 1108 1136 1096 1092 1132 1168 1112 1164 1140 1088 1104 1120 1072 1108 1164 1112 1128 1140 1108 1116 1156 1112 1120 1152 1084 1088 1116 1104 1096 1104 1120 1096 1132 1144 1088 1132 1124 1084 1128 1172 1120 1136 1120 1080 1108 1140 1092 1132 1156 1136 1096 1116 1120 1088 1108 1120 1056 1108 1160 1088 1072 1112 1128 1080 1152 1152 1088 1084 1080 1064 1068 1136 1128 1196 1168 1128 1152 1152 1096 1124 1116 1128 1136 1180 1108 1152 1156 1096 1100 1128 1096 1116 1136 1100 1124 1168 1064 1084 1112 1124 1140 1124 1144 1076 1168 1176 1128 1168 1204 1144 1184 1208 1120 1168 1184 1096 1116 1120 1124 1084 1116 1116 1064 1148 1160 1096 1128 1172 1088 1144 1144 1108 1144 1152 1092 1092 1120 1112 1108 1144 1132 1100 1152 1136 1108 1148 1152 1104 1156 1184 1108 1112 1164 1128 1100 1144 1136 1100 1168 1196 1096 1108 1180 1104 1144 1184 1128 1136 1172 1164 1128 1164 1148 1096 1172 1132 1084 1100
00735 11008 0.0000 916 884 904 916 912 884 896 900 900 892 908 904 868 884 876 880 904 932 920 924 936 932 888 904 912 908 904 916 936 912 908 924 924 892 904 892 900 864 852 852 840 880 932 924 936 952 932 912 916 924 908 912 920 912 900 920 932 908 904 920 924 900 924 924 892 892 856 852 864 900 964 932 988 984 916 924 916 928 908 896 916 928 908 912 924 932 928 932 936 904 912 908 952 928 948 968 960 912 924 904 872 840 876 900 940 968 964 924 940 932 924 920 920 932 908 924 932 916 908 900 908 924 884 896 888 880 876 872 864 836 824 812 804 788 812 828 864 872 896 920 908 904 908 912 880 892 892 892 888 908 960 948 964 980 960 936 940 936 920 924 936 916 920 912 876 856 868 880 884 868 892 924 900 912 920 916 928 932 936 908 924 936 908 908 884 840 848 844 848 876 888 896 872 884 896 892 896 912 904 904 884 884 864 864 876 864 860 876 860 836 860 844 848 864 868 868 896 892 868 868 880 884 896 896 884 860 872 860 840 832 836 840 872 888 884 904 900 912 884 908 916 896 896 900 872 848 836 816 812 824 836 864 900 912 912 916
00735 21248 0.0000 1008 1024 1028 1044 1036 1072 988 1048 1068 1044 1036 1024 972 996 1032 1028 1028 976 1004 1072 1128 1068 1088 984 1008 1020 1000 1028 976 984 1012 1000 1020 1008 1080 992 1032 1076 1032 1028 1044 1052 980 988 1016 1024 1008 984 1000 1028 1000 1044 1060 1084 992 940 896 956 1084 1132 1132 1096 1004 1012 1040 1068 1048 1020 1048 1048 1048 1040 1032 1032 996 984 1008 992 968 980 1004 1020 1012 996 996 1040 996 1052 1080 1056 1100 1092 1032 1040 1036 1020 992 1004 1004 1020 1000 1020 1036 1072 1052 1068 1092 1080 1060 1052 1032 1060 1100 1040 1072 1064 1036 1024 1052 1068 1012 1048 1036 1000 1036 1060 996 1012 1052 1032 996 1012 1036 1016 1028 988 1004 1008 1000 960 468 600 1048 1012 960 952 948 952 904 928 956 964 944 976 968 988 1004 972 980 992 992 980 984 996 1020 992 972 932 916 948 968 976 948 900 912 884 868 884 868 900 876 864 852 864 868 880 864 856 852 840 812 804 792 784 768 744 740 720 720 716 712 700 704 712 712 728 740 740 756 776 788 768 772 772 756 756 744 728 736 728 724 716 708 712 708 716 720 716 736 760 772 792 836 808 820 820 796 792 776 756 748 740 728 720 716 700 692 696 688 680 684 672 664 676 676 664
00735 31488 0.0000 932 904 912 876 884 872 876 852 836 840 836 820 828 816 812 408 928 832 840 828 852 912 1000 932 884 896 864 832 828 812 804 820 824 816 836 840 824 404 928 832 820 804 792 808 832 844 884 868 872 872 840 820 804 796 808 808 808 804 808 804 800 816 832 860 888 892 864 844 848 836 828 836 836 832 844 840 840 848 860 860 848 864 876 896 864 872 880 868 864 852 852 848 832 848 856 856 844 844 844 860 848 844 852 840 832 820 800 808 800 788 788 788 800 824 812 816 836 840 852 848 828 824 804 796 796 784 780 788 804 816 816 816 812 804 784 772 768 756 756 744 732 720 736 752 764 780 800 812 832 848 860 860 868 828 816 800 772 768 740 740 740 740 732 744 736 732 744 756 748 776 792 776 788 792 784 792 784 768 772 784 776 764 780 772 796 788 772 788 820 816 824 812 812 816 808 792 792 776 768 768 768 756 760 760 760 768 772 788 792 416 924 808 784 408 888 784 756 736 740 728 728 732 748 736 740 748 736 732 712 704 716 740 736 732 736 736 740 740 720 712 708 704 728 776 812 800 792 824 820 844 412 924 800 784 760 740
03665 1536 0.0000 724 736 720 732 744 716 432 1212 832 748 752 728 728 744 424 1064 792 724 740 732 736 732 728 736 724 728 740 424 1060 768 728 740 744 728 740 732 740 736 732 744 732 740 740 732 424 1052 732 772 740 744 740 428 1044 796 756 740 748 740 720 744 740 740 424 1156 804 748 744 732 724 744 732 728 732 744 504 988 720 772 760 744 728 420 1216 808 744 744 728 736 736 716 740 424 1064 728 744 732 732 736 728 720 424 1152 860 748 736 704 420 1124 768 752 728 716 740 720 424 1188 844 744 720 740 720 732 732 716 728 732 716 504 976 812 736 724 732 420 1240 812 384 1176 760 724 736 736 724 736 728 424 1076 784 752 732 744 740 724 748 740 728 436 1308 872 776 764 744 740 748 740 420 1132 748 744 732 740 712 740 740 740 424 1148 756 752 732 736 752 728 424 1160 784 748 736 748 732 424 1152 784 748 728 740 740 748 420 1136 808 740 752 744 728 748 740 716 420 1072 744 720 748 744 728 436 1252 636 864 764 748 744 752 420 1176 816 740 756 744 736 756 744 732 740 424 1152 776 740 740 736 748 740 728 752 728 424 1192 788 740 744 736 744 752 736 724 748
03665 11776 0.0000 812 788 808 804 780 816 792 788 812 796 808 796 792 800 800 804 804 800 808 792 796 808 788 816 808 796 820 804 792 808 816 800 364 1148 816 820 796 820 804 792 820 804 792 816 800 820 800 796 812 804 820 796 820 808 792 824 800 816 808 796 824 796 800 820 808 812 808 796 820 804 808 812 804 824 792 804 816 800 824 796 816 800 792 820 808 808 820 804 824 796 816 808 804 824 800 828 812 792 824 800 792 820 796 812 800 784 808 796 784 800 800 428 1184 808 780 784 808 788 776 792 780 800 784 768 792 788 784 784 784 788 784 792 792 780 800 776 800 792 780 800 792 800 784 804 788 784 808 776 808 800 788 812 792 800 812 792 812 792 812 796 808 812 796 816 808 800 824 800 824 812 800 828 808 820 804 808 820 808 824 812 812 824 800 820 808 804 828 792 808 820 804 824 808 812 832 812 832 804 816 828 816 824 816 808 824 800 840 808 796 820 812 800 420 1212 820 796 800 792 792 792 812 796 784 788 792 796 784 788 776 796 784 788 784 396 1152 784 780 760 768 768 760 780 764 748 764 420 1116 768 776 760 756 780 752 352 1192 772
04015 8704 0.0000 824 816 816 812 804 808 816 804 804 808 804 800 812 800 804 808 800 804 772 800 840 784 800 816 844 780 816 816 844 788 808 844 820 816 812 820 820 780 852 808 824 816 808 816 776 836 816 812 800 812 812 776 848 808 776 840 812 816 780 836 784 820 816 844 792 808 856 820 784 812 852 816 792 840 812 824 808 816 820 808 812 820 776 844 812 808 812 820 808 780 848 808 788 844 808 788 808 844 816 772 840 820 776 804 848 812 776 848 808 776 840 808 784 840 808 820 812 800 816 812 776 848 812 808 776 844 816 784 832 812 784 836 816 816 768 844 820 804 800 812 776 808 840 808 772 844 812 780 836 804 820 804 808 812 768 840 820 808 800 812 808 776 848 804 808 812 808 780 836 808 812 776 836 816 804 804 816 804 800 816 808 776 844 812 780 844 812 820 780 840 824 820 772 856 816 812 784 852 812 784 852 820 788 840 816 820 808 816 820 772 852 820 772 844 820 780 848 816 804 784 844 816 820 772 844 824 780 844 824 780 812 860 812 808 816 812 784 848 812 820 812 812 820 772 844 820 812 772 848 808 816 812 808 816 812 804
04015 18944 0.0000 884 888 892 896 884 872 888 888 884 876 876 884 888 872 888 880 888 884 876 880 884 880 884 880 884 880 880 892 880 884 900 888 884 888 888 904 892 880 896 888 892 884 880 896 888 876 892 884 892 876 888 888 876 888 892 872 884 884 884 884 876 884 888 876 880 880 880 880 884 880 888 876 892 880 876 884 896 888 884 872 896 884 884 884 884 888 884 884 892 884 888 896 848 932 900 884 888 884 896 888 872 888 884 876 888 876 880 884 880 884 884 876 888 880 884 880 884 892 844 912 912 896 896 888 876 896 888 884 892 888 888 884 884 888 888 888 888 880 892 888 888 892 884 896 904 888 912 908 920 924 912 888 968 924 924 904 920 916 900 908 896 904 900 892 896 888 900 896 884 896 892 892 888 884 888 888 888 892 880 896 912 892 888 884 888 892 876 884 884 880 888 880 876 892 884 880 884 884 884 896 880 884 848 936 884 888 908 880 892 892 868 892 892 876 880 884 888 884 880 884 884 880 892 876 876 884 884 884 880 872 896 880 880 880 880 892 884 872 888 880 888 880 884 888 884 880 892 876 884 888 880 880 884 892 892 884
04015 29184 0.0000 844 848 848 832 848 852 844 848 848 860 868 860 852 860 844 872 860 848 852 852 864 860 848 852 852 856 856 852 844 864 844 836 836 836 844 848 828 840 848 852 852 840 836 856 844 840 840 844 848 848 832 848 844 840 844 840 836 848 836 848 844 840 844 860 836 848 844 840 852 852 844 844 848 852 848 844 848 836 840 844 836 832 848 828 848 840 832 836 840 832 836 836 840 840 836 836 844 832 836 840 832 840 832 844 844 828 844 844 840 828 840 832 844 836 840 844 848 836 860 848 852 876 876 744 1028 892 900 888 896 900 888 892 884 868 888 880 868 880 864 872 860 868 860 860 852 856 848 860 860 848 848 840 836 848 848 844 848 856 852 848 836 836 840 832 844 840 836 852 856 844 840 828 836 836 828 844 844 848 844 832 832 852 848 840 844 832 844 836 832 832 840 836 844 840 852 860 860 856 840 832 840 836 836 848 840 840 852 836 848 848 840 844 836 828 840 836 840 840 832 836 840 828 836 840 852 840 848 832 840 828 832 836 828 840 852 836 840 832 828 836 840 832 844 836 840 840 832 836 844 832 848 832 844 848 844 836
04015 39424 0.0000 824 820 824 824 816 816 836 820 816 820 824 824 824 828 828 824 816 832 820 816 824 828 812 824 832 828 828 812 828 828 820 832 824 812 824 832 808 828 860 304 516 836 828 844 848 840 848 856 840 844 808 832 852 876 828 804 820 828 876 828 832 796 824 872 832 828 796 868 828 836 788 864 840 824 832 804 856 832 800 824 840 836 856 840 804 880 812 836 844 896 812 844 840 852 864 844 848 844 872 808 836 840 896 864 856 856 856 820 872 892 820 892 848 844 844 792 880 840 804 840 872 836 808 864 800 832 864 808 868 796 844 880 844 820 844 880 852 812 848 884 808 856 844 876 812 832 836 844 832 824 876 844 808 832 820 872 836 836 828 828 836 800 824 868 836 796 864 836 824 836 832 832 832 788 864 836 828 788 868 828 832 796 860 832 828 788 840 860 796 828 864 832 800 820 876 804 864 828 832 820 832 796 824 828 864 840 840 824 828 836 800 832 872 836 808 880 836 804 840 848 884 800 876 856 812 836 844 880 848 832 792 864 824 788 864 824 792 824 856 804 860 780 860 832 788 828 856 828 836 788 860 832 824 792 832 840
04043 6912 0.0000 564 564 576 580 568 572 588 568 576 580 572 572 584 584 568 572 592 576 580 584 576 588 580 580 576 592 576 584 584 588 572 580 580 592 588 580 576 584 580 584 584 588 584 584 584 588 584 576 584 596 584 584 588 580 580 604 612 596 596 608 608 604 592 608 616 600 600 612 612 608 600 604 600 584 600 592 600 592 584 584 584 568 576 596 580 580 580 588 572 576 584 572 580 580 572 568 588 572 580 580 588 568 588 588 580 580 588 580 572 608 596 584 584 588 572 576 580 584 572 584 576 580 576 568 572 576 568 600 580 568 564 584 572 564 560 584 572 568 568 580 556 572 560 560 568 576 556 576 560 568 572 576 564 556 580 572 564 560 572 580 588 564 576 572 568 572 580 564 576 576 568 568 576 564 576 568 572 572 592 576 572 564 576 588 584 576 576 584 564 588 572 564 568 584 564 576 576 572 580 576 572 580 572 572 588 576 572 576 584 564 576 584 572 572 580 576 568 584 572 572 584 572 580 588 576 584 592 568 576 584 588 568 584 588 568 568 576 584 576 568 564 576 580 580 564 568 580 572 568 568 584 572 572 576 584 564
04043 17152 0.0000 432 384 552 612 624 604 604 612 604 596 632 636 616 600 612 624 604 604 596 612 612 592 588 596 604 592 580 576 596 600 584 568 592 616 592 572 580 576 592 612 588 588 604 592 580 592 604 580 596 600 592 600 612 628 600 608 620 596 592 608 612 588 596 600 592 592 596 600 592 596 604 584 588 604 588 580 592 604 588 592 604 584 580 592 604 584 584 592 600 580 584 592 584 580 584 588 580 584 592 592 592 596 600 584 580 588 596 580 588 600 588 592 592 592 584 596 608 588 592 604 604 584 600 604 592 584 596 604 588 596 600 592 592 604 604 584 600 600 584 584 592 604 580 592 604 584 584 588 592 584 584 596 592 580 588 596 580 576 588 596 576 576 592 608 596 596 604 588 584 592 604 584 584 588 616 604 604 604 584 592 592 584 584 592 600 580 600 592 588 588 608 596 588 584 592 600 584 584 596 592 580 588 604 580 580 592 604 580 576 596 604 580 576 576 600 596 584 580 592 596 580 576 604 596 584 580 608 592 584 592 604 576 584 596 604 584 580 600 596 588 588 612 604 592 588 592 608 608 580 592 600 592 576 592 600 580
04043 47360 0.0000 592 592 604 580 580 580 588 600 604 592 576 588 584 588 592 584 580 576 592 604 584 584 584 592 584 588 596 580 584 588 580 572 584 588 576 596 600 580 584 592 584 588 600 584 592 592 584 592 600 584 588 588 584 580 596 588 588 580 580 600 600 588 596 596 580 588 592 588 584 600 588 584 596 584 588 592 584 592 600 588 588 588 592 596 584 584 592 580 592 600 588 600 600 584 592 600 588 592 596 584 596 604 600 592 588 600 588 576 596 588 596 592 592 584 600 596 588 600 604 588 588 600 584 600 588 580 576 592 600 596 600 608 604 608 612 612 612 616 640 632 616 612 600 608 608 608 612 596 608 624 612 608 612 620 608 608 616 604 620 608 596 604 620 600 592 600 608 600 608 604 600 604 600 596 588 592 604 588 576 576 596 580 580 580 580 580 576 584 588 580 580 588 576 580 580 572 572 576 588 592 580 584 592 576 580 588 592 580 572 580 588 588 576 568 580 584 576 564 580 584 576 568 576 580 576 580 580 576 568 584 572 564 580 588 572 564 576 584 576 584 592 572 564 572 588 584 580 568 584 588 576 572 588 576 576 584
04048 4608 0.0000 924 924 904 904 904 912 908 892 896 908 916 904 900 904 916 912 912 896 920 932 912 900 912 928 932 916 928 940 944 928 924 940 944 928 924 928 940 924 908 912 924 924 904 904 912 920 912 892 896 916 900 888 892 908 920 900 896 904 908 912 896 900 912 908 900 904 904 916 904 896 896 904 916 904 896 900 916 924 912 912 932 932 920 912 924 940 916 904 908 924 928 904 912 928 936 924 904 904 916 900 884 876 892 892 892 892 896 912 912 896 900 920 920 912 896 920 932 916 908 904 924 920 900 892 896 904 900 888 900 912 908 900 900 916 924 900 904 900 908 912 900 892 896 900 892 884 892 912 908 896 884 896 920 900 888 892 1540 912 896 900 900 900 896 896 916 920 908 908 912 932 924 920 912 936 944 928 928 932 944 928 908 916 928 920 896 900 912 920 904 900 912 908 896 864 872 892 896 732 888 900 920 908 900 908 912 920 912 900 904 916 916 896 900 916 920 896 900 904 920 908 892 896 896 916 904 908 912 692 924 908 904 920 928 912 900 908 924 912 904 896 904 908 896 876 892 904 900 872 872 1276 920 888 888 896 908 896
04048 15360 0.0000 896 912 924 908 900 904 916 908 892 892 912 916 912 904 908 924 916 912 912 924 928 908 904 920 924 920 908 920 932 928 924 916 932 936 920 924 916 932 928 912 924 928 936 924 916 928 936 920 916 920 940 932 920 924 936 936 920 920 924 928 924 912 916 936 932 920 912 932 940 924 916 924 936 932 912 920 936 932 912 904 912 916 892 840 844 848 848 812 828 832 840 844 844 832 860 876 848 872 872 884 896 880 872 880 892 888 880 884 892 904 900 892 892 916 916 900 888 908 920 884 904 908 904 912 904 900 900 928 920 888 900 936 920 896 908 928 920 896 904 908 904 916 904 904 904 920 912 892 916 928 904 904 912 932 924 912 916 928 924 932 920 928 928 932 924 892 940 936 900 904 904 912 904 896 900 904 896 900 892 904 896 908 908 920 928 932 928 928 928 944 924 920 928 916 896 888 872 888 896 876 856 872 880 872 848 860 872 876 856 864 856 860 836 760 852 856 872 884 872 868 872 880 868 844 852 860 860 864 856 860 884 876 868 860 856 872 864 844 848 856 848 840 832 840 840 860 864 868 864 876 884 880 852 872 888 864
04048 26880 0.0000 872 880 872 892 892 884 900 924 916 904 924 936 940 916 948 944 908 896 908 904 904 912 924 928 904 936 944 944 936 940 956 940 920 948 932 904 920 940 932 896 932 936 904 916 920 896 908 912 896 892 924 912 900 928 920 940 944 920 952 956 920 920 936 924 912 924 900 896 900 880 876 896 888 872 892 892 872 904 912 892 908 932 880 896 904 912 880 880 896 900 868 888 872 852 876 884 852 860 852 832 612 1076 844 860 860 848 844 868 880 868 884 888 880 872 892 880 864 880 892 880 856 880 892 880 892 900 904 896 908 912 892 924 932 920 900 916 928 932 904 924 932 916 904 904 908 904 876 896 900 896 908 904 888 896 916 896 868 888 888 868 884 876 808 972 884 876 876 896 896 884 896 896 884 880 880 864 876 880 860 884 888 912 900 912 928 928 924 940 928 932 960 944 924 944 956 932 932 936 940 932 940 940 944 928 948 940 928 924 944 936 912 940 948 916 924 940 944 924 940 948 920 940 940 912 928 936 932 904 920 936 900 876 892 896 872 876 860 880 864 888 876 884 916 920 776 1044 920 912 896 892 888 868 892 884 852 880
04048 37632 0.0000 932 924 900 892 900 908 908 896 900 892 892 892 880 888 868 884 628 1116 928 868 876 868 872 844 844 860 844 828 852 852 840 828 848 872 868 836 832 852 856 848 840 860 860 876 844 856 860 888 864 852 860 868 876 840 852 860 860 848 832 844 852 856 840 852 856 864 852 860 864 868 844 848 856 852 868 856 876 868 856 844 852 864 860 852 844 864 856 816 840 848 848 836 844 856 856 840 840 836 848 836 824 828 836 832 832 840 832 848 840 836 852 844 852 840 844 852 852 848 856 872 868 852 852 876 884 856 848 864 872 880 848 860 888 888 880 856 876 892 888 860 892 892 900 872 888 888 884 884 856 868 880 888 876 872 872 896 892 864 880 888 896 860 856 860 860 832 820 824 816 804 800 800 800 780 808 816 808 792 804 824 824 820 804 808 816 804 804 808 784 800 804 780 792 800 792 792 784 788 788 812 820 832 828 860 888 904 908 892 900 928 932 924 904 928 940 924 908 880 916 924 912 892 908 932 928 916 668 1168 944 948 916 928 944 932 916 904 928 936 920 896 932 932 940 908 940 940 936 916 948 964 944 920 944 952 940 920
04126 12032 0.0000 760 940 956 936 916 904 904 948 816 928 932 736 1004 888 972 972 968 944 924 792 536 1032 1000 952 736 980 996 936 760 960 800 992 944 948 952 936 908 892 924 948 736 912 872 960 932 872 856 884 908 808 876 752 928 932 760 916 928 948 912 880 900 928 932 888 796 952 940 932 892 732 960 972 936 916 824 1000 964 872 944 776 992 960 940 952 892 960 672 956 992 896 948 908 760 976 948 912 804 972 732 932 916 936 936 892 876 780 944 892 936 912 768 976 964 916 928 972 744 928 736 956 980 968 936 928 944 776 920 900 764 972 944 912 724 972 824 956 944 972 772 972 944 956 972 952 792 732 972 988 944 932 940 944 924 904 912 928 928 900 700 932 952 932 824 908 904 892 844 852 740 932 892 824 924 924 932 916 696 920 892 928 676 896 884 948 684 928 836 952 700 964 888 944 720 988 984 932 944 952 936 712 948 1000 980 716 928 972 988 716 936 956 968 908 924 732 952 824 556 992 944 984 984 920 884 768 952 940 880 876 840 940 848 876 908 924 912 904 920 936 964 924 916 936 968 952 756 960 1000 972 684 940 972 996 952 936 944 968
04126 22272 0.0000 964 972 928 900 928 932 936 916 916 964 948 936 940 968 956 952 944 960 992 972 956 968 1000 992 964 960 1008 952 964 944 968 936 900 904 924 924 900 896 932 968 936 960 992 1000 1012 984 996 1000 1012 992 964 1004 1004 972 944 1000 1000 952 960 988 988 952 948 940 960 940 916 916 960 960 920 932 972 972 940 940 964 968 960 944 952 984 976 948 968 992 992 960 968 988 1008 964 968 996 1008 976 960 992 1012 964 940 988 1000 956 936 972 976 944 920 920 932 936 916 912 956 988 964 960 988 1000 964 964 976 984 1000 960 968 992 996 960 952 1004 1000 968 952 1012 1004 932 952 964 960 912 896 912 916 888 856 556 408 968 496 988 472 992 1064 1048 992 988 1020 960 972 1012 1044 1040 1004 996 1028 1040 1012 968 1040 1032 1000 972 1036 1028 976 972 1024 1008 960 980 1004 984 988 580 400 1020 500 1068 1052 1056 1020 1008 960 976 1012 996 948 980 1000 976 964 960 972 984 968 948 976 996 964 936 968 1004 968 952 960 1004 980 940 972 996 968 952 964 996 972 964 972 988 988 980 968 976 1000 972 956 968 1000 976 940 984 1008 980 944 992 1012 956 940 940 960 948 900 896 916 908
04126 32512 0.0000 980 980 952 968 968 960 944 784 1040 976 940 936 952 976 932 932 936 948 920 904 924 932 940 912 900 908 928 916 896 756 988 932 908 684 988 952 932 924 912 940 964 912 948 956 976 700 1004 964 964 956 932 748 1048 972 944 944 952 880 976 948 944 960 952 916 940 976 972 944 936 956 960 924 924 936 956 936 916 924 944 940 944 920 964 960 952 932 952 968 944 924 952 940 948 944 940 796 1024 948 928 964 972 968 936 964 976 836 996 948 968 936 936 928 944 952 928 924 944 940 924 908 928 952 952 852 968 960 960 952 928 964 956 960 928 752 1044 964 940 940 960 952 952 932 808 1028 960 932 964 976 984 948 964 972 984 932 944 948 968 940 936 964 956 932 932 932 952 940 912 924 944 936 896 904 924 908 920 904 880 924 904 896 812 952 944 908 916 916 928 936 916 908 936 940 928 720 1012 968 948 940 940 964 964 932 936 944 968 944 908 944 956 948 920 936 948 948 928 920 936 940 924 924 920 940 932 916 920 936 936 912 904 932 936 880 724 992 988 944 924 916 956 944 948 924 944 936 928 720 1000 960 964 940 920 960 960 760 1008 948
04746 768 0.0000 912 512 1120 988 968 984 1000 1048 992 1004 1016 1032 1008 996 1008 1036 1000 1000 1016 1024 1012 996 996 1028 1008 1000 1000 1008 1016 988 1004 1016 996 988 984 996 996 980 1020 1028 1000 992 988 1000 1004 1008 976 1016 1012 984 968 992 1016 952 948 964 944 920 900 904 924 904 900 908 884 880 860 860 876 896 892 884 880 920 928 916 892 888 936 920 936 928 972 968 912 904 932 948 936 944 940 980 960 960 936 936 976 976 992 1024 1000 1012 976 1004 1040 992 1000 1000 1012 972 984 976 996 988 976 996 988 1004 1000 988 984 976 936 952 988 972 976 976 980 1000 968 968 1000 988 980 940 944 980 936 940 936 980 1004 964 988 972 980 968 948 968 952 940 948 944 940 940 912 920 924 940 912 920 944 948 908 904 888 912 908 884 896 888 912 880 864 876 880 864 860 832 840 852 856 864 860 872 908 916 924 944 936 960 968 924 960 960 960 932 944 1000 988 988 992 980 968 952 952 984 988 992 972 996 1008 988 988 1000 984 984 968 988 1012 1012 980 1020 1008 996 988 976 972 940 932 944 944 948 892 916 928 932 908 892 896 940 948 952 916 936 936 920 916 908 932 904 892 888 900 904
04746 42496 0.0000 1072 1040 1012 1036 1056 1036 1004 1052 1044 1036 1020 1012 1052 1028 1016 1056 1056 1040 1016 1052 1028 1024 1000 1036 1024 1004 1028 1032 1036 1016 988 1032 1016 1004 988 972 944 932 932 976 1008 1008 976 1000 1016 996 968 960 976 980 976 964 988 1028 984 996 1008 1000 992 984 1004 1000 1000 1000 992 1012 992 968 988 996 988 960 980 992 972 568 1276 924 944 912 900 928 948 948 944 948 932 952 952 924 968 976 964 976 972 984 984 940 952 968 964 980 988 1004 1004 1012 996 1020 1052 1000 1012 1016 1000 996 976 988 1004 1000 972 1004 1048 1016 1008 1016 1036 1036 1024 1032 1048 1068 1032 1044 1080 1048 1024 1048 1052 1016 1000 1012 992 1000 984 980 1024 1004 996 1016 1024 1016 1004 1008 1024 1024 984 996 1040 1008 1016 984 1004 1028 1008 1020 1040 1044 1024 1024 1024 1032 1028 992 1028 1032 996 1004 1020 1028 996 1004 1008 1008 1008 976 1016 1024 988 996 992 1012 1000 972 1000 1008 988 964 972 988 988 976 976 1008 996 972 976 968 984 976 964 992 1000 992 984 968 996 968 948 976 992 988 980 980 1000 988 960 968 984 984 980 972 992 1020 984 988 1000 1004 1008 972 988 1004 968 704 1144 972 960 892 884 884 884 860 852 864 908 892 912 916
04908 4864 0.0000 568 540 584 620 572 588 596 564 532 604 584 572 592 608 560 580 616 572 608 592 368 212 568 576 572 600 592 608 532 560 592 544 600 608 628 548 572 600 588 576 596 620 548 568 596 548 592 584 604 544 572 580 588 604 628 552 572 568 600 564 600 628 556 576 592 572 552 592 392 228 564 584 604 572 572 604 596 612 544 564 244 364 560 600 432 592 164 544 564 596 560 608 640 600 552 584 616 572 608 624 548 568 572 600 568 596 616 568 536 564 608 576 612 624 556 572 608 560 604 596 620 540 572 572 588 596 600 612 544 572 588 600 616 608 588 576 572 580 592 604 596 580 568 564 576 580 596 588 580 564 580 592 608 604 596 580 568 564 576 588 600 592 568 552 556 564 580 596 584 576 568 572 592 596 604 596 580 572 568 584 600 596 584 572 556 556 572 588 592 588 580 568 580 596 604 612 596 584 576 576 592 608 600 592 568 564 568 584 596 600 596 588 588 580 592 608 612 600 580 576 580 588 604 592 588 568 568 576 596 620 616 596 580 576 584 608 608 608 596 576 572 584 596 596 592 580 572 576 592 616 612 600 588 572 580 592
04908 17920 0.0000 600 588 576 576 588 600 596 580 568 560 564 576 580 588 576 564 568 564 576 588 588 580 564 556 560 572 588 588 576 568 556 556 564 580 584 576 560 552 560 568 580 592 580 568 556 556 568 580 584 576 564 552 552 564 580 584 584 580 568 564 588 608 616 600 588 576 572 580 588 592 584 568 556 560 572 584 600 592 572 576 580 592 604 608 596 580 576 572 576 592 600 592 588 592 580 588 596 600 588 576 568 576 588 592 592 580 564 576 580 592 596 596 584 576 568 568 584 596 588 580 564 564 564 584 588 584 576 564 556 564 576 588 584 576 564 560 568 580 592 592 572 560 560 564 576 592 584 576 564 556 556 568 576 580 572 556 552 556 568 580 584 572 564 556 556 564 580 588 580 568 560 556 572 580 588 576 568 556 552 560 572 588 580 572 564 572 580 596 600 596 576 572 568 576 580 588 588 568 556 556 564 592 600 616 588 576 576 588 600 608 596 580 568 572 580 592 600 604 580 568 568 576 592 588 580 568 556 564 572 584 584 580 564 556 556 568 580 588 580 564 556 556 564 576 584 576 560 556 552 560 576 584 580 568 560 552
04908 30976 0.0000 580 576 568 556 564 584 592 604 604 576 572 576 580 596 596 592 572 560 560 572 580 584 580 572 556 564 568 580 584 584 548 548 552 568 580 584 572 564 552 548 560 568 580 576 564 552 544 556 568 580 572 564 556 548 556 560 576 580 572 560 548 556 572 580 584 576 564 548 556 564 580 580 572 560 552 552 560 576 580 572 560 548 552 560 572 584 580 560 548 548 564 572 580 580 568 552 548 560 576 580 580 568 552 552 560 572 576 580 568 556 548 556 572 580 580 572 564 556 564 572 584 588 588 568 560 564 580 588 592 584 576 564 564 576 592 596 584 568 564 568 576 588 600 588 568 560 564 576 588 596 588 568 564 560 580 588 592 584 572 560 560 572 596 596 584 568 564 560 576 588 600 588 572 560 568 580 588 596 592 572 556 564 580 592 592 592 576 568 572 580 600 608 588 576 564 576 584 600 600 592 564 568 568 588 600 600 588 576 568 576 592 608 600 584 572 568 576 592 600 600 584 568 564 580 592 600 592 584 572 564 576 592 604 592 576 568 572 584 596 600 600 588 560 576 592 600 600 600 588 580 572 592 604 608 588 584
04908 41216 0.0000 572 588 588 584 572 568 568 576 588 596 588 576 564 564 576 588 592 584 576 564 560 580 584 596 584 576 564 560 576 588 592 584 572 556 560 572 584 592 588 572 560 564 580 588 592 592 576 568 564 584 592 600 588 580 580 572 580 600 600 588 572 568 576 584 596 600 592 576 564 576 588 596 592 588 572 568 568 584 592 592 584 564 560 564 580 588 592 580 568 556 560 576 588 588 584 568 564 564 576 592 592 580 572 560 564 580 592 596 584 568 560 564 572 588 600 584 568 560 568 580 592 592 588 572 564 564 580 592 596 580 572 564 572 580 596 596 592 568 568 576 584 592 596 584 564 564 596 580 568 592 608 556 564 596 560 592 624 576 552 560 596 556 592 620 576 544 564 592 552 588 620 576 548 568 568 580 592 596 580 580 576 576 584 592 600 580 564 564 568 576 588 592 576 560 560 564 580 588 588 576 564 560 564 580 588 588 580 568 564 572 584 592 592 580 568 560 564 580 592 584 576 568 560 564 576 592 596 580 568 560 568 576 584 588 580 568 560 568 576 592 592 584 568 560 568 580 584 588 588 568 556 564 584 596 596 592
04908 51456 0.0000 584 596 604 604 592 584 580 584 596 600 608 596 580 572 592 604 608 604 588 580 588 588 600 608 604 588 576 580 592 612 608 596 584 584 584 596 604 604 596 588 580 584 600 612 608 596 580 580 592 604 604 604 592 588 584 584 596 608 608 588 580 576 596 608 604 596 588 584 580 592 604 608 600 588 576 580 596 608 600 588 580 580 576 592 604 604 596 580 580 596 608 604 600 596 584 580 584 604 608 600 584 584 584 588 600 604 600 588 584 580 596 608 608 596 584 580 592 596 604 604 596 588 580 584 600 612 600 588 580 584 588 596 604 604 588 580 580 596 604 604 596 588 588 580 588 604 612 600 584 576 584 596 608 604 592 584 584 592 596 604 608 508 664 572 592 604 608 596 588 584 584 588 600 608 604 592 580 580 592 608 616 596 584 580 588 600 604 608 600 584 576 584 600 608 600 592 584 580 584 592 608 604 592 580 572 584 600 608 604 588 576 580 584 600 608 596 580 572 576 588 596 596 596 584 576 576 588 604 604 588 580 576 584 588 596 600 596 584 568 576 592 604 596 584 580 580 584 596 600 604 592 580 572 580 596 608
04936 2048 0.0000 952 948 916 932 1540 948 928 936 948 900 904 940 920 924 896 920 948 916 912 908 924 932 896 904 912 912 912 888 900 932 904 912 908 952 948 912 944 924 924 936 912 932 924 920 916 888 908 892 884 880 864 880 888 856 852 876 868 904 880 908 920 924 948 920 948 1000 984 992 1580 1640 996 964 552 1060 956 952 568 1128 996 544 1060 1096 1596 1040 988 564 1080 1008 568 1132 1112 948 544 1080 984 548 1052 952 552 1080 972 548 1072 1008 564 1172 1664 984 516 1096 1016 576 1100 1084 1372 1080 1024 1628 1632 1628 964 564 1152 1076 560 364 872 900 940 556 976 1032 1004 556 1072 1036 552 1344 660 696 872 888 864 544 1308 252 1404 1000 960 964 976 952 940 964 956 984 948 968 1024 952 944 916 916 912 880 928 916 920 916 888 936 924 912 912 920 968 984 916 944 952 948 916 928 972 976 992 932 992 960 936 940 952 972 936 960 972 964 964 944 912 952 928 924 908 924 960 916 924 928 940 928 924 920 952 928 940 920 948 940 928 964 912 956 936 932 936 952 960 936 928 960 948 940 952 972 944 948 956 948 948 960 984 1024 936 960 940 916 940 936 960 924 964 948 920 916 928
05091 8448 0.0000 1068 1092 1068 1052 1088 1096 1060 1044 584 396 1052 1064 1052 1100 1084 1048 1064 1100 1080 1036 1092 1092 1068 1052 1092 588 396 1028 1060 1092 1096 1032 1060 1080 1084 1036 1084 1104 1068 1040 1080 1088 1056 1060 1116 1100 1056 1124 1132 1112 1092 1112 1136 1088 1072 576 396 1104 1080 1080 1096 1084 1052 1072 1108 1076 1060 1084 1124 1068 1056 1088 1092 1048 1068 580 1188 1100 1100 1112 1100 1088 1076 1120 1068 1064 1088 1100 1076 1056 1120 1088 1084 1076 1096 1112 1080 1080 1124 1076 1068 1080 1096 1060 1056 1080 1080 1048 1076 1108 1072 1064 1060 1100 1064 1036 1080 1072 1044 1020 1060 580 392 1056 1036 1064 1076 1032 1028 1068 1076 1012 1044 1072 1040 1032 1044 1080 1068 1040 1064 1096 1060 1052 1080 1084 1040 1052 1088 1068 1048 1048 1072 1064 1024 1036 1048 604 388 992 1044 1072 1068 996 1048 1068 1088 1024 1064 1108 1060 1056 1084 1088 1036 1052 1072 1060 1028 1044 1084 1052 1040 1048 1084 1048 1032 1044 1072 1040 1028 1064 1080 1044 1032 1072 1076 1040 1036 1084 1080 1036 1056 1076 1088 1048 1068 1112 1060 1052 1092 1100 1048 1064 1084 1080 1036 1048 1068 1052 1012 1040 1096 1032 1040 1060 1088 1060 1032 1060 1072 1032 1016 1072 1068 1032 1024 1076 1060 1020 1028 1068 1056 1020 1048 588 404 1016 1044 1072 1096 1072 1056 1076 1108 1056
05091 19968 0.0000 952 940 984 992 956 936 980 992 972 952 960 996 976 944 964 972 968 928 924 960 952 932 916 940 948 932 920 936 956 964 948 956 976 1000 960 948 988 988 964 944 972 992 960 952 976 984 972 948 964 992 972 944 948 980 980 956 944 972 988 948 948 972 980 956 940 980 984 984 940 968 1000 980 956 948 1008 980 940 964 984 988 948 964 992 980 960 948 984 984 964 960 976 988 980 940 968 988 972 956 952 1012 980 964 960 1000 988 952 964 980 988 956 948 988 988 960 936 960 996 956 948 952 996 968 948 980 1000 992 952 972 992 988 956 960 1000 992 964 968 992 992 968 940 980 976 972 948 972 984 964 956 964 988 968 952 972 972 992 948 960 980 984 960 944 988 992 968 956 980 1012 968 980 976 996 996 952 980 988 992 964 964 992 968 928 1048 968 976 944 944 984 976 940 932 956 968 940 924 940 960 928 908 924 940 960 920 936 964 956 944 920 952 960 948 932 956 988 976 960 988 1004 992 980 988 1004 1004 980 988 1020 1032 984 992 1024 1024 976 976 1016 1016 984 988 1020 1020 972 992 1000 1020 972 992 988 1020 980 964 1012 1004 980 948 992 1004 968 968
05091 30208 0.0000 936 924 952 960 928 924 944 956 940 920 936 940 936 928 916 944 936 928 912 928 952 924 908 928 948 932 900 920 936 944 924 876 924 968 912 908 908 920 916 888 900 892 904 896 872 876 900 892 880 872 888 896 888 880 884 900 916 896 896 920 920 924 912 900 924 924 896 892 908 920 888 864 920 904 928 900 896 904 920 876 876 884 904 888 884 876 880 916 888 876 892 892 900 880 868 900 904 892 896 880 896 912 888 880 884 908 900 868 884 888 900 896 852 876 904 880 868 868 884 896 888 872 884 900 904 872 880 896 896 892 880 876 908 900 892 888 892 912 888 880 888 900 904 900 880 892 904 896 876 872 904 900 884 892 892 904 916 884 884 908 912 888 876 896 904 900 888 884 896 920 888 876 900 908 904 892 888 928 912 916 884 904 932 900 908 900 920 936 916 920 928 960 936 916 936 948 944 928 920 940 944 932 916 924 952 932 900 936 944 932 912 920 940 932 928 920 924 952 940 904 928 932 940 908 916 928 920 928 908 920 948 944 920 920 956 956 916 928 940 932 924 904 920 940 924 912 912 932 932 920 908 896 924 936 888 888
05121 3840 0.0000 848 860 880 880 852 852 852 860 856 852 852 884 872 832 840 856 880 880 832 828 836 868 856 844 860 900 872 848 848 876 900 896 860 860 888 900 868 844 868 900 876 832 832 860 868 844 824 820 856 864 848 840 860 860 488 992 972 924 920 888 852 828 864 884 856 840 840 840 860 828 824 860 880 884 856 864 904 924 888 872 860 888 880 876 868 884 888 864 852 864 888 492 1012 992 904 904 892 872 868 872 876 888 872 904 908 920 904 872 888 912 924 904 864 880 896 868 852 864 892 880 828 812 848 876 876 832 808 872 884 880 864 864 900 900 860 856 884 912 888 852 860 884 872 888 868 864 872 856 856 868 880 504 1016 1000 968 932 924 908 872 868 872 880 888 872 892 892 876 872 856 876 888 864 852 856 896 904 860 848 876 872 852 832 844 888 880 480 972 984 944 908 864 868 876 876 856 864 900 908 884 860 856 868 876 868 880 860 836 860 864 848 852 880 880 852 836 864 888 888 856 832 840 864 860 856 848 864 872 848 824 864 880 868 832 816 852 896 876 852 860 880 876 836 824 868 896 872 828 824 856 884 872 864 856 860 860 832
05121 48896 0.0000 840 820 804 816 824 820 808 808 816 824 804 820 832 812 816 828 824 832 800 800 828 828 820 792 804 824 828 804 784 816 832 820 792 796 816 824 800 784 800 824 828 808 800 820 836 816 808 796 804 812 500 1020 920 852 824 824 812 812 788 392 1200 816 792 792 820 828 816 792 808 840 820 792 800 800 808 796 788 800 808 812 796 812 808 812 804 792 800 816 800 804 804 816 828 812 796 828 828 600 992 884 844 828 812 800 804 820 828 808 788 792 816 812 808 788 796 824 832 804 796 824 828 812 780 796 840 824 792 800 808 820 812 792 808 820 824 816 792 796 824 824 804 792 808 820 820 808 796 816 704 908 812 804 828 808 800 800 820 816 796 800 812 820 824 796 796 816 812 808 796 804 836 820 808 792 792 808 812 812 788 788 804 800 808 796 792 812 812 820 804 796 820 824 500 1004 948 900 872 844 820 812 808 812 796 784 812 816 800 768 796 812 816 796 776 808 824 800 808 816 808 808 800 804 804 792 800 820 808 784 796 816 816 796 776 792 816 804 776 784 792 796 800 772 776 796 800 792 792 792 780 780 796 796 800 784 780 808
05261 9472 0.0000 684 684 696 660 668 472 836 692 676 688 504 856 524 860 704 696 688 704 524 836 556 848 720 704 728 700 744 708 724 724 724 760 728 736 724 716 724 720 724 716 716 712 708 708 712 712 720 724 736 712 720 712 696 704 700 696 696 684 688 696 712 720 716 716 704 708 704 684 716 696 712 712 752 760 768 776 768 760 744 736 736 756 732 736 748 748 724 736 728 728 724 720 720 724 728 708 700 696 704 712 700 700 696 692 692 696 568 808 704 700 700 700 688 684 688 700 692 712 708 736 752 752 744 740 736 700 732 576 828 576 864 756 800 828 812 792 780 784 788 772 784 780 792 772 780 768 760 776 752 760 784 780 784 772 776 764 748 756 756 760 756 760 740 744 744 744 744 740 736 744 740 736 732 724 732 732 724 716 708 716 456 892 724 704 716 724 728 732 732 736 732 740 752 740 740 736 752 736 744 732 740 732 744 748 728 740 740 732 740 736 728 732 720 732 736 728 724 716 724 724 724 720 544 848 740 720 724 716 724 720 728 724 720 724 716 724 732 756 744 744 748 756 752 748 516 912 760 748 736 732 732 736 744 748 744 728
05261 19968 0.0000 1012 1352 1328 1348 1324 1324 668 404 528 436 504 760 1432 512 956 500 928 504 932 484 936 484 560 884 496 924 472 924 448 660 424 404 492 396 376 780 768 400 1088 1456 480 968 1464 876 880 868 896 904 904 888 904 916 896 904 912 896 896 884 864 876 876 868 872 872 856 868 860 856 864 872 860 856 860 860 872 880 892 908 920 912 904 888 880 880 856 856 860 848 856 852 852 872 868 860 864 880 892 888 868 896 900 900 876 884 884 876 872 864 872 884 872 888 884 892 904 888 900 892 888 884 872 880 876 876 880 880 900 892 900 892 880 888 876 876 868 864 860 852 860 872 868 856 868 868 868 880 900 916 908 908 900 896 900 884 868 876 868 852 856 848 860 860 864 872 896 908 896 888 884 888 880 876 864 884 860 856 852 860 872 876 872 868 892 868 876 864 864 876 860 860 864 856 876 856 856 852 844 860 864 860 868 864 856 876 868 864 864 856 860 860 848 868 876 872 884 876 872 892 908 896 900 904 896 880 876 888 900 896 892 900 900 860 868 892 888 892 868 860 864 856 860 852 872 904 912 892 896 896 888 872 856 864 856 560 1056 844
05261 32000 0.0000 764 772 772 776 472 984 784 792 788 772 784 768 448 988 772 780 516 968 780 764 760 768 528 960 760 756 756 744 752 740 568 900 740 752 532 932 744 740 500 932 744 744 520 932 452 956 748 756 492 936 764 392 940 536 920 752 732 740 508 960 764 756 752 752 504 940 448 952 744 752 492 932 440 952 768 724 736 728 736 428 944 752 760 524 964 452 952 468 968 468 948 460 936 1408 532 916 452 360 552 728 728 720 704 712 720 444 904 720 720 712 712 712 732 708 716 420 916 720 732 204 276 900 432 908 720 724 712 712 720 724 432 936 736 732 736 740 736 736 732 424 964 452 936 740 736 732 736 472 924 732 720 728 728 740 492 940 740 760 756 456 964 760 756 432 972 764 756 444 948 448 948 748 752 760 776 784 780 788 440 992 524 968 476 964 784 780 772 772 768 780 776 792 776 432 988 484 988 472 968 496 960 512 960 464 976 756 764 488 956 532 944 492 968 492 956 508 968 488 988 780 776 780 776 776 464 968 480 968 508 952 488 952 480 956 476 980 780 780 776 452 1008 616 964 788 780 416 1004 780 772 772 436 980 784 776 788 796
05261 43520 0.0000 624 616 624 628 628 636 624 640 280 352 640 644 644 648 648 640 640 648 432 200 648 632 628 624 624 624 624 620 620 620 628 636 628 624 624 636 624 632 636 636 628 636 632 620 248 392 632 636 412 844 696 668 660 652 648 628 648 644 644 636 632 632 624 628 612 620 620 624 620 616 608 620 608 612 608 612 616 620 620 620 616 612 620 624 608 616 620 616 608 616 620 624 624 624 640 640 640 652 652 656 652 656 652 660 652 648 652 668 684 676 680 680 676 672 668 672 672 668 668 668 676 688 692 696 700 704 716 704 696 708 704 700 708 708 716 552 280 324 284 716 728 720 724 728 720 724 728 724 716 716 724 716 724 724 720 724 724 728 748 752 732 736 736 728 736 740 736 744 732 728 724 732 736 744 752 748 744 756 740 732 740 716 700 700 692 700 692 692 688 696 708 384 940 740 716 708 708 684 672 660 668 672 668 672 676 676 684 688 688 688 684 668 672 680 688 680 680 688 692 688 688 688 684 684 680 684 684 688 672 696 708 724 712 700 700 688 700 692 692 696 696 700 704 708 708 700 704 700 704 704 708 708 708 708 712 724
06453 9216 0.0000 964 976 960 984 972 964 556 1224 1040 980 1000 992 964 968 976 996 960 960 984 972 976 984 992 988 972 984 968 984 996 972 976 992 1004 964 988 1008 988 984 984 992 980 992 988 976 1000 968 972 984 996 988 968 1004 996 980 984 1004 996 972 996 988 956 1052 976 944 1056 1000 968 984 1000 972 960 972 1000 984 980 1016 980 984 992 1004 980 976 976 972 956 1052 972 976 1004 1008 972 940 1068 988 980 1000 1004 1016 1000 964 1004 1008 968 980 1000 988 984 988 996 992 992 1004 984 1976 1048 992 1004 1024 988 988 996 1008 976 980 1024 996 976 980 1012 996 988 1020 1012 1008 992 992 992 1000 996 976 984 992 984 980 992 1020 996 976 1020 1024 984 980 1004 976 992 988 1000 1036 1008 980 996 1028 984 984 1012 992 992 992 992 988 1008 1008 980 1024 992 980 1000 1016 992 972 1016 996 996 1004 1000 1000 992 1000 992 996 1016 1008 1000 1004 1008 980 980 1024 1004 992 984 1020 996 976 1000 1004 1016 984 1016 1004 1004 1024 1000 1000 1008 1012 980 1028 1020 968 984 984 1000 1000 1000 1000 1012 996 968 1012 1000 980 1008 992 1000 1008 988 1004 1012 1008 996 1000 1012 988 996 1012 1000 1004 1004 976 1016 1004 964 988 1004 992
06453 19456 0.0000 1008 1004 992 988 984 988 980 972 980 1012 980 964 1004 1004 984 988 1012 992 988 996 984 1020 1008 980 988 596 1416 968 1000 548 1072 1164 692 1324 988 980 988 976 980 576 1364 1004 988 992 780 1156 1020 964 968 992 976 956 968 980 972 968 972 984 1000 988 968 968 1000 988 976 980 996 984 948 976 992 972 976 968 988 964 972 972 980 976 968 988 976 1000 672 1260 992 988 980 972 984 996 960 956 972 984 984 968 540 732 1296 1004 1004 1008 972 972 972 960 988 968 956 956 980 972 968 988 972 976 976 964 992 988 964 956 972 992 948 964 976 976 964 976 980 984 980 956 956 988 968 980 976 980 976 968 980 968 980 980 956 980 980 960 952 976 992 952 960 980 976 964 956 968 964 980 952 948 984 968 952 960 980 980 948 960 980 968 960 956 968 980 616 1320 972 992 944 932 968 972 960 948 972 972 960 952 944 956 960 960 948 956 992 968 964 988 976 976 952 976 980 960 956 976 976 964 972 952 964 976 952 952 960 976 956 948 972 980 956 972 960 972 968 960 636 1304 1024 952 936 980 980 952 932 968 956 948 540 1244 980 968 948 948 968 996 940 948 972 960
06453 29696 0.0000 980 988 996 980 992 996 1000 996 1008 1012 996 996 1000 1008 1008 992 992 992 696 1328 1020 1044 988 992 972 1000 996 984 1004 1016 1004 968 980 988 1004 992 976 988 1012 1000 992 1012 1032 984 992 1008 1012 988 980 1020 1012 992 984 1016 1012 988 996 1008 1012 1000 1000 1000 1012 1024 992 996 996 1000 996 984 1032 992 980 996 1020 1008 988 1000 1016 992 992 1016 1008 1004 1008 988 1008 992 964 980 1000 1004 972 996 1016 1008 996 984 996 984 1000 988 992 1008 996 1004 1004 1004 1000 980 1004 1016 1004 984 1004 1024 992 1008 1020 1032 984 968 1028 1016 988 972 1012 1012 1004 1020 1020 1004 988 1000 996 988 1008 980 996 1016 1012 980 1000 1012 992 1012 1000 996 980 980 1004 996 1012 1000 992 1004 1012 996 976 1028 1008 992 988 1012 1008 984 996 1024 1008 1000 976 1036 996 980 1012 1004 1000 976 1020 1000 1004 984 1004 1012 1012 1008 972 1008 1012 980 1004 996 996 996 1016 1004 992 1004 988 1000 1008 992 980 996 1012 980 992 1016 1004 980 980 1008 1008 976 980 1012 1044 980 980 1016 616 1396 796 1260 1016 1016 988 996 992 1000 996 980 1008 972 968 984 1004 1016 988 1016 1012 996 1004 1004 1004 992 992 996 1016 1008 980 988 1008 1004 652 1312
06995 15104 0.0000 764 748 768 764 720 716 556 832 776 564 812 756 780 796 760 732 744 752 760 760 744 736 748 776 788 756 752 764 772 780 760 728 732 564 832 772 596 796 752 772 780 748 736 744 748 772 780 752 732 760 780 756 748 752 732 760 776 748 724 744 552 820 584 828 744 752 776 760 752 672 772 728 680 820 740 572 812 776 784 764 748 732 748 544 756 800 744 560 820 772 584 776 756 744 768 756 736 736 732 736 756 756 720 716 740 740 760 756 712 712 756 780 736 728 540 800 756 772 744 700 720 736 728 736 728 692 548 808 760 744 728 716 716 756 764 728 728 732 736 744 756 720 708 732 760 748 744 736 716 740 564 820 752 744 744 760 756 748 724 716 740 760 744 716 712 728 740 752 560 788 740 564 816 768 736 716 708 720 732 716 540 768 716 564 816 744 720 704 716 728 736 732 700 708 740 740 732 728 720 708 740 764 744 716 732 760 752 752 540 768 548 824 792 788 748 740 760 788 768 740 744 744 748 776 760 736 576 1040 732 684 572 508 508 596 808 728 804 772 760 552 816 788 756 764 768 776 788 752 728 760 584 824 772 576 792 764
06995 25856 0.0000 716 720 716 668 736 724 704 724 736 736 684 688 720 656 732 664 768 628 764 744 764 740 724 656 720 688 660 768 716 632 780 748 740 716 708 708 664 680 536 788 716 524 784 736 524 652 728 568 720 740 648 640 676 552 712 756 708 692 680 676 692 700 676 636 680 684 680 656 720 672 676 692 668 720 696 688 664 500 784 684 564 768 696 692 700 672 692 684 668 680 696 672 720 660 688 644 732 700 696 688 616 708 704 728 632 720 704 704 708 720 660 688 504 700 776 680 504 768 712 684 704 736 700 692 644 716 744 716 696 624 688 740 676 752 696 684 628 544 808 704 516 740 684 524 808 704 736 628 744 748 756 736 636 672 764 736 720 644 516 788 752 748 724 692 660 732 712 548 804 632 572 784 716 736 716 684 684 632 676 708 720 688 664 680 660 500 780 712 688 676 692 684 692 616 504 772 700 712 700 636 684 676 640 728 688 684 668 652 712 644 532 748 504 756 712 716 696 488 744 684 576 704 784 700 636 716 716 712 708 644 684 632 748 572 784 708 512 756 684 528 812 668 732 720 716 720 656 684 712 696 692 668 696 688 676 712
07879 0 0.0000 996 848 1000 808 988 812 988 816 1008 820 980 812 828 836 848 836 840 972 804 968 824 1008 804 1000 844 976 824 1000 808 980 828 1012 832 1024 864 980 872 644 588 1024 656 1092 984 980 884 996 860 1020 824 1000 848 1012 840 1020 868 1004 836 980 816 984 812 972 836 1008 836 992 828 996 804 1032 880 980 864 1016 820 1008 844 1008 820 1028 836 996 820 1012 816 864 1000 816 856 1020 816 868 1020 836 1004 840 992 816 984 808 972 812 988 808 1000 824 980 844 988 836 1016 828 988 872 1016 860 1000 876 984 856 1008 836 988 828 992 812 1016 828 864 1020 856 872 1008 816 856 996 816 856 1004 812 980 836 992 812 972 812 844 972 812 848 980 824 564 1020 988 860 988 836 1000 820 860 1004 812 984 824 1008 808 1008 824 984 820 1012 812 996 828 988 800 1004 820 976 836 992 796 4268 784 816 976 792 968 808 996 808 988 836 1004 808 1012 816 1012 824 1036 820 1000 832 1004 812 1016 832 992 828 1020 820 1004 836 856 864 848 984 808 836 972 816 968 800 1008 808 988 844 1016 836 984 820 996 804 976 824 996 812 992 816 856 992 832 864 944 1020 836 1016 820 1016 812 864 1024 848 864 996
07879 50688 0.0000 892 896 892 900 912 884 892 888 876 884 904 908 904 900 2736 880 8116 892 2692 1816 848 2560 2644 896 884 868 876 864 864 868 868 860 872 864 880 880 872 864 876 864 864 880 888 876 884 868 876 876 876 872 864 868 872 884 884 880 872 868 876 872 876 876 876 880 892 900 900 888 904 924 864 912 904 908 1804 936 880 2660 908 908 888 908 2644 888 904 928 852 2716 956 876 904 1788 904 1808 944 1824 888 932 864 896 2716 896 896 888 884 928 860 896 880 876 896 892 892 200 1548 1732 856 872 872 864 1732 864 868 860 864 856 852 868 868 860 864 860 856 864 1740 872 872 868 876 1764 868 864 860 872 880 868 884 880 872 888 868 732 940 860 860 868 888 880 884 892 888 884 892 884 876 880 868 876 888 880 876 872 860 880 908 840 660 972 896 904 908 908 908 904 912 948 920 884 904 896 908 3612 1800 892 900 1804 856 1764 884 884 880 1804 888 912 1820 868 892 1856 4476 888 2588 908 5272 884 1772 888 880 880 884 864 3448 880 1736 736 932 868 868 864 860 856 860 860 1740 848 852 1716 872 876 864 1736 872 904 836 864 868 860 868 880 872 880 888 872 904 852 880 884
07910 4864 0.0000 860 864 880 876 900 868 880 880 864 872 880 876 876 880 860 872 860 860 852 848 856 852 860 860 860 864 532 1052 932 888 888 892 892 884 880 908 892 900 880 900 880 908 884 880 900 880 892 876 532 1064 932 896 904 884 908 888 900 892 892 876 884 880 880 532 1052 928 912 892 908 884 896 908 888 892 892 896 912 640 1080 644 548 552 1112 904 916 900 920 900 920 908 920 924 904 920 908 924 904 908 904 904 540 1084 932 944 916 532 1080 956 944 924 916 932 532 1092 956 904 936 920 928 908 928 896 920 884 904 880 908 876 868 868 884 880 876 864 868 872 868 884 864 884 880 892 880 896 888 908 888 888 888 892 904 892 896 888 900 904 896 892 908 900 912 900 912 916 908 912 680 1168 928 540 1088 960 924 936 916 932 924 916 932 924 932 932 928 928 932 928 944 936 948 936 948 944 940 952 948 952 964 980 984 964 964 976 980 980 992 996 992 984 992 988 1000 976 992 980 988 976 976 980 988 988 992 984 1000 976 992 968 988 984 972 764 1216 988 980 968 976 984 976 976 984 992 524 636 664 872 984 540 1160 1008 988 988 964 956 632 1324 968 944
07910 18944 0.0000 1048 1036 1052 1024 1036 1024 1040 1056 1028 1060 1064 1044 1036 1044 1040 1048 1040 1044 1056 1028 1044 1056 1052 1036 1036 1048 1036 1048 1040 1060 1028 1064 1036 1048 1032 1040 1044 1056 1036 1048 1040 1048 1040 1044 1036 1032 1036 1036 1028 1052 1028 1052 1040 1072 1044 1056 1064 1056 1076 1052 1076 1064 1064 1052 1068 1064 1048 1044 1068 1040 1036 1032 1048 1020 1028 1024 1056 1012 1036 1028 1052 1012 1032 1044 1028 1052 1024 1036 1044 1036 1028 1068 1044 1044 1032 1044 1060 1024 1052 1044 1052 1040 1048 1052 1036 1056 1040 1048 1028 1040 1036 1044 1032 1040 1060 1044 1036 1040 1032 1064 744 1360 1060 1040 664 1456 1032 1056 1020 1036 1040 1028 1056 1036 1048 1036 1036 1040 1040 1044 1028 1040 1032 1036 1064 1032 1028 1032 1040 1024 1036 1028 1040 1012 1048 1012 1052 1040 1044 1032 1028 1048 1068 1032 1020 1060 1020 1036 1064 1056 1036 1060 1056 1052 1076 1040 1080 1068 1056 1060 1064 1052 1032 1052 1040 1044 1056 1072 1052 1084 1068 1080 1096 1076 1112 1100 1104 1096 1096 1100 1064 1096 1076 1068 1060 1048 1064 1048 1052 1032 1032 1048 1056 1048 1072 1076 1084 1088 1072 1072 1060 1068 1064 1060 1044 1072 1052 1064 1064 1060 1052 1052 1056 1052 1048 1044 1032 1052 2132 1072 1076 2136 1072 1064 1064 1052 1060 1080 1052 1072 1072 1080 1060 1064 1076 1056
07910 29184 0.0000 968 956 964 584 1228 992 576 1220 1008 992 976 956 988 972 972 964 968 976 984 984 1000 1000 976 968 988 980 980 968 972 1004 968 972 532 1196 1000 572 1256 992 992 976 980 960 984 956 980 960 964 960 956 952 960 972 588 1268 1032 1016 1028 1000 1032 992 1008 988 996 980 588 1260 1020 1008 1000 992 1008 988 992 976 996 984 984 988 972 976 976 976 972 968 980 964 964 980 964 960 936 964 952 940 928 968 952 928 928 952 948 932 920 956 940 948 924 952 928 544 1120 968 976 948 976 948 940 956 948 964 688 1156 968 964 952 948 952 956 948 944 968 960 964 960 980 956 980 956 984 952 968 960 952 956 948 980 948 952 948 936 964 948 960 952 936 960 944 952 980 956 960 956 960 944 956 960 960 960 948 944 936 936 948 968 944 956 536 1184 1004 1000 996 992 992 968 988 980 968 980 976 984 976 960 996 988 972 984 984 984 980 984 972 992 976 980 972 976 976 960 960 980 960 520 1172 1008 976 960 956 952 952 940 968 952 944 952 948 936 956 952 956 960 952 960 980 968 964 980 968 960 956 976 972 948 964 960 952 964 960 520 1172 976 532 1156 984 984 968 968
08215 7168 0.0000 708 704 700 696 684 692 692 684 688 684 688 684 688 684 680 680 684 672 672 664 664 668 664 668 676 676 676 680 680 676 676 676 668 672 672 664 668 660 668 668 676 676 676 676 676 672 680 676 668 664 676 676 664 668 672 668 672 676 668 664 660 664 392 916 680 660 664 668 664 660 660 664 660 660 664 660 656 652 656 656 660 660 660 668 680 680 680 676 680 680 676 672 676 664 668 672 672 668 672 676 672 664 668 664 664 664 660 660 660 660 656 656 652 660 660 652 652 648 644 656 660 656 660 672 676 676 676 680 680 680 680 676 676 672 672 672 668 672 668 676 664 668 664 660 664 656 656 656 660 656 648 660 656 660 668 684 676 672 684 680 680 676 676 668 664 668 664 664 656 660 660 648 644 648 656 652 664 668 664 660 676 672 664 664 664 668 668 668 660 664 468 848 660 656 660 660 656 660 660 664 400 904 672 660 664 656 656 668 664 660 660 664 664 656 656 660 660 652 652 648 648 652 656 664 668 664 656 668 676 688 684 680 684 684 672 668 676 668 668 668 656 656 648 648 400 900 668 648 656 652 652 660 664 672 672 672
08219 7424 0.0000 588 464 676 596 648 420 676 588 588 544 632 588 592 488 660 592 584 484 668 592 584 472 676 592 592 496 660 364 700 604 584 492 660 596 584 472 672 592 584 464 684 596 588 544 628 596 588 544 636 588 584 540 384 720 608 588 476 672 592 588 528 648 588 364 700 608 592 472 684 596 584 484 664 592 588 480 664 592 584 496 660 592 588 488 664 596 588 500 660 588 584 496 660 588 584 480 668 596 588 548 620 592 484 440 424 728 612 592 484 616 352 696 604 592 484 672 592 588 492 660 596 592 488 664 592 588 544 628 592 588 544 628 584 588 528 640 588 588 508 652 588 588 500 656 592 584 508 652 588 588 520 644 584 584 508 652 592 588 496 656 364 696 604 584 496 656 588 580 500 656 588 584 512 640 592 584 504 652 588 580 520 644 588 584 512 644 584 580 544 620 588 584 540 628 584 584 548 624 584 488 656 592 464 672 588 580 536 620 584 584 540 628 588 588 540 624 588 580 364 696 600 584 544 624 584 580 544 652 548 584 544 624 588 580 548 616 584 588 440 688 592 580 492 652 588 580 540 620 580 580 540 344 716 372 348 704
08219 17664 0.0000 568 356 668 564 556 388 660 560 356 656 568 548 544 548 544 540 468 612 552 548 488 588 556 432 608 564 372 668 592 200 796 556 512 352 656 564 424 632 556 540 352 656 568 356 664 560 548 456 616 552 540 544 540 432 652 332 648 480 356 656 420 712 552 236 776 544 540 540 544 464 604 356 648 520 320 432 668 560 348 652 556 520 340 592 620 548 544 456 612 544 536 536 536 536 536 536 468 596 544 536 536 536 460 600 1004 592 508 380 628 556 536 352 656 556 544 352 568 596 348 388 676 564 544 544 540 464 612 548 536 468 600 548 528 348 652 560 544 540 460 608 552 540 540 540 544 540 464 616 548 540 544 540 540 544 1076 544 540 496 584 548 544 544 1076 356 652 560 544 544 544 544 456 616 548 536 344 652 360 648 564 544 540 544 548 1204 668 568 556 548 556 1084 548 360 672 360 660 568 548 1076 552 516 356 664 364 660 568 552 520 588 548 548 544 544 380 664 560 552 548 548 368 672 564 496 348 356 508 664 592 556 528 356 672 572 1108 560 552 556 368 364 680 576 564 560 1100 564 564 552 564 556 560 556 556 552 548 560 500 616
08219 45056 0.0000 624 612 408 812 672 664 568 724 664 568 736 652 508 780 652 564 736 656 612 396 800 676 660 536 760 656 572 728 656 608 708 656 600 416 808 680 660 532 760 660 564 732 652 656 644 660 524 756 644 564 404 800 672 656 524 760 652 564 728 644 592 408 360 792 676 660 668 664 664 660 652 660 660 656 660 656 664 648 660 660 652 656 656 664 652 668 664 652 660 660 652 664 656 536 756 652 664 584 716 664 560 744 652 600 432 772 580 752 660 660 660 652 656 540 752 652 580 724 660 508 772 664 548 744 656 584 396 796 708 632 508 776 664 544 748 660 588 400 800 680 664 508 780 664 544 744 660 588 388 796 676 664 516 784 668 540 752 652 576 408 804 676 660 536 756 660 664 548 744 660 556 748 652 600 384 804 668 664 576 716 664 580 716 664 584 432 776 676 668 540 740 668 664 544 744 664 576 732 660 540 748 664 552 748 652 604 404 808 676 664 692 620 660 656 656 652 660 656 652 532 752 660 572 728 660 588 404 804 668 664 524 760 656 552 744 656 592 400 808 672 664 540 744 664 544 756 652 580 736 652 660 652 664 656 664 648
08219 55296 0.0000 580 764 684 600 752 684 596 752 720 652 684 720 656 684 720 652 680 712 568 748 684 640 716 688 632 720 688 632 720 688 716 648 652 708 684 680 676 712 648 596 752 684 592 756 688 588 792 652 596 784 652 572 768 720 548 760 716 560 760 720 656 680 640 732 680 584 796 652 584 792 656 572 768 688 580 764 720 568 756 684 616 736 688 620 728 684 612 736 684 560 816 656 584 800 656 584 756 688 572 764 684 572 764 720 552 756 724 500 796 688 612 732 688 712 652 680 712 652 604 780 652 596 752 684 680 684 684 680 680 668 700 680 560 768 684 628 728 684 572 772 684 584 792 648 576 764 680 576 760 688 572 764 720 544 768 724 544 772 692 608 744 688 600 744 688 600 744 688 580 772 688 580 800 644 580 804 644 576 772 676 592 752 716 520 408 824 700 728 548 768 692 572 764 688 612 740 684 584 768 672 580 800 644 580 796 644 580 772 680 684 712 640 684 680 592 744 684 600 736 684 604 736 684 616 732 676 572 800 640 532 788 676 572 764 676 584 760 716 548 760 716 536 768 684 600 740 684 600 740 684 568 804 644 572 804 644
08378 17408 0.0000 756 764 772 788 772 780 780 780 792 792 796 784 780 780 780 780 776 780 780 788 788 784 780 788 800 796 792 784 776 788 780 780 776 780 780 784 780 780 784 792 800 784 780 776 780 788 792 796 776 780 776 784 780 788 788 780 780 768 772 768 784 788 784 772 772 772 776 780 796 788 772 784 776 780 780 788 796 788 784 776 780 784 792 800 784 780 784 776 772 784 788 788 780 780 776 780 780 792 800 788 788 784 784 792 792 796 792 788 788 784 788 788 800 788 784 776 772 776 772 788 788 780 776 784 776 784 792 780 788 780 772 776 780 772 784 780 776 780 776 776 776 788 780 780 768 772 768 776 780 784 780 788 792 796 796 800 804 808 800 800 808 804 816 824 820 820 816 824 824 828 836 816 820 824 820 820 828 836 828 816 812 820 824 836 840 824 820 820 816 820 828 828 824 820 816 816 820 840 848 832 820 832 832 836 848 836 828 832 820 824 824 836 832 836 820 824 824 832 836 828 824 832 832 828 832 824 840 836 824 820 820 820 828 808 804 804 808 808 808 808 816 816 816 808 804 804 816 812 804 792 804 816 824 836 824 828
08378 32768 0.0000 920 916 916 920 920 912 908 912 912 912 916 924 920 920 912 920 916 916 912 916 924 924 928 932 928 928 908 904 900 888 888 880 880 880 876 876 888 884 888 888 892 896 884 884 880 872 864 864 876 888 888 892 892 908 908 908 904 912 920 920 912 912 916 920 908 912 772 1008 908 908 912 916 916 920 920 924 916 904 900 900 904 900 896 908 908 912 904 908 908 900 896 888 880 876 872 880 876 880 892 884 884 888 888 892 876 876 876 872 876 872 880 880 888 884 888 888 892 888 884 888 892 892 896 888 884 876 868 876 864 868 872 876 880 872 876 884 892 884 892 892 896 888 880 868 876 892 892 896 900 912 900 896 888 884 884 868 872 872 872 868 860 860 856 848 832 832 836 844 840 848 836 840 828 816 808 800 800 792 772 768 764 764 760 744 744 748 736 736 744 736 728 732 732 732 728 724 732 728 736 728 728 728 728 728 728 724 716 720 720 720 720 720 720 724 732 724 732 740 736 748 748 748 748 744 748 744 748 748 748 748 756 752 756 760 760 756 756 764 764 756 748 740 748 744 744 740 736 736 728 736 728 724 720 720 720 720
08378 43008 0.0000 964 956 960 940 928 920 940 948 952 964 964 972 976 972 980 984 980 984 988 996 1000 992 988 984 980 976 976 980 984 984 992 992 1004 1000 1000 1004 1000 1012 1004 1016 1008 1004 1000 996 996 988 988 988 984 984 976 980 980 980 988 976 988 972 952 932 936 948 952 956 968 972 968 956 948 952 940 956 952 964 968 968 980 980 976 976 972 972 964 952 952 944 940 932 936 928 924 924 916 900 908 920 932 936 944 952 956 964 976 976 976 984 984 988 996 1000 1000 1004 1012 1004 1000 1000 992 992 996 1004 1000 996 992 988 984 976 988 996 992 984 976 964 964 952 944 936 940 932 932 940 944 964 960 968 968 972 984 976 988 1000 996 1000 1004 1004 996 996 992 988 992 984 984 980 988 984 980 984 980 984 972 980 980 988 992 1000 1004 1000 988 996 988 972 948 952 960 972 984 1000 1008 1012 1020 1016 1016 1008 1008 1012 1004 1016 1004 1008 984 972 964 952 940 932 924 916 924 916 916 908 916 912 916 908 916 916 924 924 940 940 952 952 968 968 972 968 976 972 972 972 984 984 980 984 976 968 964 960 964 964 968 964 968 968 960 972 956 952 952 952 948 952 964 972 972 976
08405 7936 0.0000 748 780 764 756 760 772 752 780 780 784 792 768 764 784 776 764 788 788 800 816 816 808 808 804 804 808 764 764 764 748 752 760 752 740 764 756 740 752 768 748 748 780 764 752 768 784 780 776 776 776 772 752 764 776 764 748 764 764 740 740 744 768 784 784 796 800 792 800 772 760 756 772 760 764 796 796 796 812 816 788 788 788 792 788 780 772 772 752 748 756 744 736 744 760 748 764 788 780 792 804 812 800 796 792 808 780 756 764 740 740 740 736 724 740 744 736 748 760 744 740 760 744 748 760 768 768 792 764 768 772 764 780 792 768 764 780 776 756 752 756 756 764 772 772 764 760 768 768 764 752 784 772 752 772 764 740 752 760 728 732 740 728 724 732 732 728 724 736 732 728 732 732 748 740 752 760 776 776 752 772 760 764 764 756 768 772 764 752 764 744 736 752 744 736 748 780 776 792 824 808 800 788 796 776 776 772 756 744 736 740 736 740 752 744 744 776 780 748 764 780 760 772 784 768 780 792 780 756 752 732 740 744 744 748 748 764 780 784 764 752 760 752 744 764 744 756 748 764 748 756 764 756 752 784 768 748
08434 4608 0.0000 756 752 764 740 764 760 780 504 924 824 776 512 932 788 796 532 916 780 768 768 768 744 764 480 916 796 464 432 508 792 468 964 800 476 948 796 472 956 796 472 960 800 468 976 824 472 1012 832 476 1008 840 476 1020 876 500 1000 900 864 480 1040 892 500 1056 908 864 484 1048 884 892 484 1036 912 492 1048 912 884 924 496 1048 932 916 876 480 1032 912 836 848 484 1004 844 884 884 872 932 920 944 928 904 932 964 892 888 924 888 932 908 924 908 888 884 884 888 896 900 880 872 480 1040 928 908 500 1076 940 920 940 492 1080 928 928 928 908 912 468 1048 892 872 468 1020 884 848 468 992 852 824 464 964 836 480 956 836 476 940 820 800 776 800 768 796 476 928 820 792 788 792 768 472 956 812 480 944 528 948 812 492 984 456 960 832 804 816 812 812 476 964 848 488 972 816 496 976 816 480 972 812 484 968 824 484 976 836 484 992 496 980 832 484 988 828 484 988 848 484 1008 856 832 852 860 844 856 476 1020 884 480 1024 872 480 1040 876 480 1044 892 484 1052 892 484 1056 900 480 392 1032 896 876 884 884 908 484 1060 932 484 1040 928 484 1040 916 480 1048
08434 17664 0.0000 804 804 804 784 920 896 876 852 836 824 808 776 696 880 776 784 788 780 764 776 788 772 800 800 816 812 820 832 824 800 816 816 828 824 824 844 840 840 856 840 856 848 836 836 820 824 824 828 808 832 840 832 844 856 848 860 864 872 864 836 860 852 844 860 852 844 876 864 840 864 840 868 868 848 892 872 868 872 864 884 876 864 880 856 828 844 836 840 840 836 848 828 804 824 812 804 816 804 832 828 804 816 808 808 804 804 792 808 808 816 820 808 816 816 796 812 820 832 836 844 860 868 868 884 864 868 880 876 876 872 868 868 864 872 864 856 876 876 864 884 892 868 892 912 884 900 888 884 892 868 876 872 856 872 884 872 876 864 872 872 852 872 860 848 876 868 852 876 864 852 864 864 880 880 864 876 872 844 864 852 824 836 828 820 828 828 832 824 816 828 816 804 824 820 808 836 824 820 836 836 840 844 848 864 856 844 860 844 836 856 852 848 860 860 860 852 844 856 844 840 848 836 832 852 840 824 852 844 840 852 852 840 844 836 832 836 848 856 856 860 836 872 868 848 872 880 864 888 872 868 880 872 860 856 836 848
08434 27904 0.0000 672 484 336 772 808 264 544 768 820 792 768 800 792 792 784 820 804 784 804 776 804 776 832 812 824 820 860 868 864 908 896 904 932 924 904 940 924 908 932 916 936 924 912 924 924 944 928 916 932 900 932 920 932 916 880 908 912 936 924 904 932 916 896 928 936 908 936 904 892 928 936 888 904 888 880 900 880 864 860 832 856 848 836 860 872 900 900 888 920 920 940 920 948 928 932 908 904 916 920 936 944 932 972 976 956 972 964 980 956 952 984 964 944 968 976 952 976 956 960 932 912 944 928 948 936 924 944 924 936 916 888 904 876 912 908 892 908 908 928 920 916 924 904 928 916 928 912 900 928 916 916 916 896 932 920 904 920 920 916 912 900 924 916 896 904 896 916 900 876 900 884 896 880 876 880 892 900 884 924 920 928 932 916 940 924 892 924 908 896 928 908 924 924 908 948 944 932 944 948 956 948 940 960 944 916 944 932 912 932 932 940 944 916 944 924 904 928 920 912 920 900 928 912 888 920 904 896 912 904 924 912 888 924 916 940 920 900 924 912 904 916 904 924 904 872 892 864 904 888 888 900 904 928 928 924 948
08434 38144 0.0000 980 992 980 992 988 992 1028 1000 996 1024 1012 1020 1020 992 976 980 972 976 980 976 988 992 1008 1004 1008 1008 984 992 976 960 964 964 992 988 1016 988 1012 1024 1012 1008 1044 1000 996 996 1004 980 992 1004 972 992 984 980 972 972 964 980 960 540 1116 972 976 968 952 988 972 956 964 948 960 968 980 968 1008 1016 1000 1028 1028 1016 1052 1020 1016 1020 992 984 984 964 972 1004 980 996 1004 984 988 988 988 1004 936 1040 1016 1036 1012 1036 1028 1008 1000 988 1000 992 980 980 980 980 976 980 960 972 976 984 980 992 988 1008 980 984 992 960 976 984 968 980 976 956 968 1000 988 968 956 940 876 976 968 972 980 984 988 980 1000 992 1000 1064 1036 1076 1060 1032 1080 1056 1040 1056 1052 1052 1052 1044 1044 1060 1060 1048 1060 1028 1032 1020 992 1020 996 1004 996 972 984 956 940 980 988 1000 1024 1032 1020 988 1016 1008 1024 1000 1016 988 1004 984 968 968 976 956 964 944 948 940 940 952 960 972 964 976 960 980 980 972 972 960 976 988 992 984 972 976 952 1000 1000 976 1004 996 1012 1028 1020 1012 996 992 956 976 976 980 1008 1012 1004 1000 956 992 996 984 1008 980 980 980 1016 1016 1044 1020 1012 1012 1012 1008
