# physionet r-r rhythm segments, distilled
# source PhysioNet afdb / nsrdb / mitdb, ODC-BY 1.0
# class SinusMit
# segment_beats 256
# selection every 2th of 159 segments in this class
# columns record start_beat premature_fraction rr_ms...
# lead chest, ambulatory Holter ECG - NOT wrist PPG
100 0 0.0078 814 811 789 792 789 817 653 994 844 811 789 772 839 856 822 828 822 794 797 792 822 869 822 786 792 775 786 811 817 828 844 806 775 800 789 858 842 825 803 836 792 789 819 844 881 822 778 803 811 797 836 831 825 811 789 781 808 842 833 831 806 778 797 781 792 856 847 822 783 786 786 817 811 850 833 811 783 772 786 803 842 825 811 778 800 789 800 817 858 831 786 783 792 831 825 831 831 822 797 778 794 814 858 847 811 794 786 797 811 825 847 853 808 767 800 803 817 836 819 828 797 781 778 814 822 864 831 789 786 803 792 819 831 839 819 772 753 794 819 814 836 822 783 744 831 781 831 864 822 803 778 786 800 797 814 847 825 775 761 781 772 825 828 797 786 789 778 761 786 819 847 808 769 778 792 786 797 819 819 806 772 775 772 806 811 822 800 769 778 775 783 786 831 819 783 753 772 783 792 811 828 828 803 769 769 800 819 836 839 800 794 803 786 789 833 847 839 789 758 797 806 814 819 828 806 794 778 769 825 522 939 844 817 775 819 811 811 847 867 814 769 789 794 828 831 831 850 814 775 794 819 842 861 833 792 797
100 512 0.0039 764 742 742 733 761 775 800 789 778 728 758 756 761 758 792 814 761 731 758 753 794 819 783 772 753 769 753 744 783 825 769 742 731 703 717 728 728 736 736 758 711 669 678 697 706 719 731 719 686 689 694 692 681 736 753 758 736 728 717 747 742 750 786 775 750 722 708 703 714 767 747 747 753 750 722 750 753 775 814 833 806 764 778 772 817 817 622 986 825 781 747 772 783 819 808 789 772 772 747 764 794 794 833 792 747 744 783 753 769 758 764 761 728 714 728 731 767 753 761 736 708 725 728 719 756 797 800 758 747 753 756 792 817 842 814 806 800 789 778 825 883 858 808 803 800 794 794 819 853 839 783 778 797 817 847 831 836 808 811 786 775 842 844 817 797 789 769 778 808 797 814 817 800 750 764 769 806 811 797 792 783 753 736 761 778 797 789 772 739 764 742 758 778 775 772 761 725 725 756 764 783 794 794 758 778 772 764 778 844 836 772 775 756 775 769 794 808 842 778 758 753 761 772 811 808 806 786 772 764 767 775 806 825 769 761 764 781 744 778 800 797 789 758 742 764 786 797 808 806 775 778 772 775 769 828 817
100 1536 0.0195 819 814 822 794 783 806 861 867 822 800 822 819 825 603 1025 867 839 783 797 828 644 986 839 822 806 772 781 814 844 828 814 792 789 789 794 842 844 853 806 797 783 800 828 856 844 822 803 800 781 808 819 853 839 806 575 961 822 819 833 836 828 789 761 800 836 842 642 989 811 797 769 789 839 858 822 797 806 792 800 814 833 853 828 772 789 789 789 867 842 822 825 781 783 789 833 842 842 828 781 803 794 819 842 842 828 825 783 800 833 853 839 847 786 811 792 792 828 872 825 817 783 800 806 806 819 861 844 792 781 800 819 853 825 817 825 792 769 786 811 836 828 797 767 792 772 786 836 833 828 794 767 750 775 789 822 806 797 775 797 775 803 828 872 842 800 792 817 822 831 839 875 822 786 786 808 839 842 839 831 814 786 778 819 833 847 822 817 786 808 792 811 828 822 792 775 764 769 828 592 1006 839 800 781 792 797 819 839 842 789 794 781 781 828 828 842 825 817 769 792 797 842 847 828 794 811 783 783 808 836 839 819 758 781 806 797 822 842 844 822 803 764 833 844 833 825 833 789 803 772 803 861 853 806 789 789 803
101 256 0.0039 992 936 856 842 858 928 958 939 897 917 917 928 906 956 947 858 856 936 961 928 878 844 864 858 869 969 961 939 914 922 961 983 1003 942 939 922 911 961 975 983 953 944 944 961 944 1000 978 917 914 933 1008 1006 978 953 911 939 944 992 1014 961 928 900 958 1003 1011 944 958 950 953 1025 1033 994 906 914 939 931 878 925 889 917 897 936 1017 997 975 931 892 956 989 1000 1011 967 958 989 1008 1058 1039 992 994 1014 1028 1028 1025 975 992 1889 969 958 925 914 931 961 1014 1022 947 900 931 925 906 919 892 903 861 839 919 986 989 953 917 967 989 992 992 944 917 906 939 1014 1003 958 939 922 894 947 983 1019 950 869 906 878 944 917 911 861 858 861 931 1006 1044 1025 964 989 1067 539 1183 1006 964 975 978 1028 1056 958 969 981 1044 1053 1039 1028 950 975 1022 1053 1050 997 939 997 1036 1056 1056 1022 967 975 1031 1031 986 992 983 989 1056 1067 1044 986 986 1000 1050 1083 1008 986 1006 1008 1050 1086 1061 986 1006 1067 1050 1053 1044 1000 972 1022 1081 1053 969 989 992 1028 1008 1031 1047 972 992 1050 1064 1064 1028 1022 1011 1069 1086 1047 1003 997 1003 1078 1086 1031 986 1006 1036 1003 1044 997 942 903
101 768 0.0000 1039 978 969 997 1008 1036 1042 969 989 983 994 1064 1036 964 972 1017 1017 1025 1025 1003 967 967 1047 1058 1006 992 1011 978 1033 1067 1008 986 981 1008 1031 1036 1025 967 992 1017 1000 1058 1044 964 956 1011 1069 1006 997 1019 969 969 1053 1083 1003 986 1014 1019 1031 1061 1028 978 1006 1011 1067 1033 1025 983 969 1033 1044 1019 1003 983 978 1006 1086 1011 992 1006 961 1000 1053 1014 986 978 969 1014 1050 1044 975 975 992 992 1003 1022 975 961 978 1064 1042 1006 1044 986 983 1042 994 1011 933 872 919 919 989 1022 1022 978 989 1033 1081 1047 1033 1017 1003 1019 1044 1083 1003 992 986 1011 1072 953 953 964 947 1000 1053 1050 967 956 964 967 1019 1017 953 961 969 956 1008 933 886 853 864 864 917 939 917 981 953 975 992 1061 1061 1000 964 1003 1028 1061 1011 1014 978 964 1017 1050 1025 975 953 1000 1019 1014 1014 958 872 869 883 981 1003 978 972 986 1017 1061 1025 1042 1003 1031 1047 1050 1025 1019 1008 983 936 1022 964 911 861 844 861 861 906 900 903 878 872 908 969 1000 986 961 1008 967 1006 975 917 908 919 975 1061 1061 1056 1019 1033 1031 1022 1050 1008 944 908 953 1008 958 894 917 925 917 967 1000 1014 936 858 831 844 853 850 900
101 1280 0.0000 881 894 883 922 997 967 914 919 933 983 981 1011 1003 956 942 983 975 1011 986 928 967 969 953 983 956 958 947 953 1003 989 981 950 931 967 947 1019 1017 972 922 933 964 997 953 953 969 931 950 1011 975 994 958 897 975 975 953 961 936 931 922 989 1056 989 975 928 964 983 1011 983 936 897 911 964 972 1000 961 894 942 950 972 1014 981 975 942 950 1008 1006 1000 975 981 983 944 1000 1006 956 911 942 1008 1000 1025 969 953 911 958 1006 1022 961 958 983 992 989 1044 1006 931 942 947 1028 958 967 947 919 947 953 1000 1014 983 972 1003 1047 1064 994 972 972 975 989 994 1014 967 917 944 986 992 975 917 903 908 925 944 981 939 911 914 933 969 1003 1003 969 886 906 925 942 928 875 833 886 864 881 906 908 908 892 897 886 964 956 928 875 842 892 925 958 1017 969 919 883 925 967 956 925 964 950 967 1022 1061 1044 956 972 1008 1033 1042 1000 978 958 983 1022 1014 986 989 964 981 1019 1031 1053 992 972 956 1025 1039 992 961 978 972 1003 1025 1033 978 950 1003 1036 1003 1014 931 961 953 978 964 989 969 964 944 1022 1053 1022 1000 986 950 925 967 1019 975 983 1011 1025 1047 1050 1011 964
103 0 0.0000 861 836 844 839 869 922 881 833 833 842 833 853 911 908 917 878 903 867 900 936 889 847 842 833 878 889 894 892 836 839 833 878 883 869 869 825 786 817 828 842 842 831 828 800 786 811 856 869 836 833 817 811 850 864 925 881 836 858 831 817 858 883 894 839 822 853 833 853 881 889 831 797 844 831 836 867 878 869 814 831 847 833 856 858 853 819 806 828 839 833 867 847 814 778 778 850 847 844 875 850 836 825 872 900 889 894 853 858 844 839 911 892 858 836 836 850 856 894 911 864 842 833 856 850 875 908 861 817 819 847 839 856 881 856 814 806 806 847 861 839 883 850 794 808 833 861 858 850 836 794 783 794 853 831 814 819 789 775 792 800 856 850 822 836 814 803 842 858 892 856 831 842 819 808 847 864 844 817 806 794 789 822 831 831 794 761 786 811 828 878 894 908 894 886 881 881 883 911 886 842 814 858 869 869 886 872 853 825 869 925 908 917 872 867 833 833 928 897 872 872 853 847 850 917 919 900 869 867 864 875 922 931 903 864 850 864 856 894 919 856 831 817 850 847 853 903 856 800 819 825 839 856 867 867 806 786
103 512 0.0000 878 908 878 842 839 819 819 875 903 914 861 864 883 872 908 919 936 878 839 872 850 856 881 867 814 806 828 844 856 881 878 844 803 814 875 867 858 858 872 842 825 878 908 878 889 850 836 819 839 917 881 853 867 858 842 842 908 881 853 831 817 828 822 861 881 856 819 803 806 808 819 861 867 819 836 844 869 889 892 928 875 825 856 875 875 878 911 842 817 836 850 897 878 867 861 822 847 856 903 892 861 872 831 811 853 892 886 872 875 853 858 878 903 947 883 856 872 864 897 919 944 900 847 903 872 897 919 925 883 842 867 867 861 897 892 853 825 842 856 886 894 878 875 828 833 894 883 892 875 867 836 800 850 892 867 864 861 856 853 867 906 878 869 842 847 811 831 900 867 836 822 803 822 817 819 864 819 783 778 783 800 819 844 864 828 806 806 836 847 858 908 867 828 825 833 883 875 892 903 825 819 833 872 872 853 894 844 794 828 867 883 872 886 847 822 833 850 911 875 853 867 817 808 839 872 864 828 814 831 789 797 858 892 875 819 836 836 819 842 858 861 817 803 836 831 864 908 900 917 825 878 875 881 894 872 867
103 1024 0.0000 844 886 950 936 911 886 911 889 878 950 908 883 858 875 886 894 953 919 858 861 858 875 906 944 919 850 833 847 842 819 831 850 811 794 817 869 908 892 933 897 861 872 894 939 900 883 856 794 817 850 889 889 875 889 847 844 881 928 886 833 867 831 842 883 900 922 875 858 872 861 925 922 933 917 886 919 914 933 939 939 869 892 894 911 928 919 914 861 864 872 878 914 883 878 833 825 875 900 900 931 931 894 883 944 931 922 900 878 847 839 922 894 872 864 853 839 836 889 914 892 869 842 847 847 875 922 892 864 833 872 853 875 944 886 861 842 856 872 881 933 908 875 864 861 914 908 919 919 872 861 892 917 911 933 911 847 861 886 908 883 886 869 803 817 850 892 875 864 883 836 808 847 917 911 897 892 861 833 861 892 906 853 853 856 819 847 897 903 875 842 881 847 847 906 925 883 847 872 875 878 908 914 897 836 850 856 847 894 881 883 831 811 886 886 894 908 906 867 839 886 903 881 869 864 842 822 864 906 883 906 872 867 828 850 928 883 856 836 817 822 789 808 797 750 717 692 689 686 664 675 714 706 686 658 647 656
103 1536 0.0039 819 847 906 839 808 831 792 744 728 714 744 750 750 775 803 756 747 789 825 864 883 919 911 853 886 900 917 922 931 908 861 856 867 928 892 908 903 864 900 942 969 936 928 903 864 728 1117 983 922 906 894 889 900 903 925 853 836 853 842 897 897 928 886 858 872 861 914 936 914 864 853 869 856 872 906 933 856 844 906 886 892 894 917 872 847 931 950 911 925 922 883 872 919 939 917 914 894 864 878 925 919 894 881 864 833 817 889 892 878 894 867 872 878 933 947 886 872 842 847 806 814 853 850 831 836 903 914 928 1014 975 894 883 928 928 922 953 897 847 864 897 906 906 947 878 842 850 900 897 853 878 822 797 817 828 906 906 906 869 819 858 894 919 919 914 894 811 839 869 936 903 903 925 878 872 917 969 925 889 919 883 897 944 969 933 881 906 869 897 919 900 850 847 889 883 931 900 897 828 778 822 800 819 872 900 889 861 881 914 922 944 936 897 861 892 892 903 922 900 869 847 875 922 914 936 892 889 867 872 928 906 894 881 886 847 872 928 917 900 858 861 847 861 931 883 864 844 842 839 858 939 903 847 844 867 878 889
105 768 0.0156 689 706 711 711 722 728 733 728 706 681 694 708 739 744 742 717 708 692 700 714 728 722 747 758 722 678 689 703 725 750 750 733 733 736 697 692 717 750 750 761 739 714 689 725 717 736 742 742 725 725 722 686 697 736 769 753 733 725 708 714 722 714 742 753 772 731 708 694 714 714 744 761 747 722 719 714 706 700 731 747 758 758 722 689 711 731 731 733 750 747 728 731 697 706 722 772 747 747 725 714 706 722 717 739 742 767 736 711 700 706 703 750 761 747 728 731 714 708 703 722 747 761 472 1006 708 694 728 739 733 747 756 731 722 703 706 711 772 761 747 731 722 700 711 731 750 742 769 747 392 1000 703 703 731 772 742 717 725 717 700 686 711 744 744 422 1033 714 686 700 717 736 731 731 722 711 700 686 694 728 761 742 719 708 708 697 703 711 733 733 761 722 697 681 700 700 744 767 736 717 711 719 697 686 728 739 758 756 711 694 706 731 725 475 1025 753 728 728 700 706 722 767 764 761 736 711 708 728 736 750 750 769 758 719 700 708 725 761 783 764 742 733 736 722 700 744 764 767 764 725 697 714 744 731 744 758 753 733
105 1280 0.0039 739 767 750 717 697 700 711 711 725 744 736 756 719 694 689 711 717 753 761 742 708 717 711 703 703 739 739 753 750 703 683 714 733 731 739 756 731 725 719 692 706 728 767 733 747 719 706 703 725 733 742 750 767 742 722 692 714 725 769 764 758 728 733 725 717 708 739 756 750 742 711 694 711 742 744 733 756 744 728 728 708 714 736 783 742 733 728 711 717 739 747 756 764 792 733 719 711 725 742 764 744 747 722 725 703 714 725 747 753 756 736 708 686 717 728 750 736 742 733 719 708 694 706 719 778 747 728 708 706 694 706 719 731 728 750 731 694 678 694 692 733 753 722 706 703 703 675 678 706 728 514 931 708 675 658 683 697 708 703 714 703 700 686 669 681 692 728 731 725 686 675 667 686 686 692 714 711 728 692 672 658 675 681 714 733 711 692 681 692 667 661 689 717 703 717 703 675 644 672 697 694 692 700 706 675 672 664 653 653 706 731 700 681 678 672 658 678 678 700 700 714 711 681 650 664 675 694 717 711 717 686 678 686 678 664 683 722 728 714 681 681 661 686 694 714 697 711 700 692 683 667 672 694 739 719 708
105 1792 0.0117 642 619 614 617 661 683 658 647 653 636 617 628 644 414 875 678 683 647 647 617 617 619 650 664 664 675 650 656 644 628 619 628 647 664 681 678 653 628 628 633 644 653 647 667 672 669 647 633 633 619 653 1431 592 667 658 625 622 658 644 658 681 692 672 656 622 597 661 644 672 669 669 650 669 600 681 625 1308 669 689 692 644 636 644 661 642 675 675 678 678 678 656 633 644 642 678 692 697 672 658 653 647 644 644 672 658 686 692 669 625 631 639 633 653 683 672 400 914 675 631 628 619 644 661 681 417 939 653 622 647 639 639 647 675 672 664 658 639 625 619 650 675 667 675 669 653 628 644 647 636 658 672 694 681 667 631 622 633 650 667 669 675 661 675 658 639 619 631 658 667 681 678 658 639 631 650 636 650 656 675 672 667 661 631 631 619 653 678 678 650 664 658 625 633 647 636 639 675 694 658 650 628 628 619 644 661 658 664 664 669 644 631 611 633 647 658 678 675 653 633 631 642 625 644 647 667 664 675 658 625 628 619 639 672 667 647 656 656 625 639 642 628 647 669 703 681 664 631 631 633 644 664 664 672 661 675 658
105 2304 0.0117 667 667 681 672 689 706 733 692 669 656 667 656 686 722 706 692 692 694 658 658 669 692 694 725 717 683 661 672 689 678 692 711 711 694 697 667 656 656 692 711 697 689 683 683 656 664 1342 689 717 717 694 650 650 669 669 686 708 711 683 694 683 661 644 664 686 708 703 703 683 644 672 678 675 672 697 703 697 683 656 653 644 689 706 703 686 694 667 667 675 650 667 692 708 697 697 647 650 636 664 672 678 461 914 697 672 653 636 647 667 683 703 681 672 642 647 661 656 642 678 694 686 678 658 644 636 656 689 681 681 675 678 644 642 647 644 653 669 561 831 664 639 639 617 650 442 911 689 678 700 672 653 642 661 669 706 725 694 681 669 681 658 669 681 706 703 719 706 658 658 667 692 692 717 703 697 683 681 678 664 675 706 742 714 700 675 675 669 675 697 708 700 711 722 669 650 667 686 706 719 722 711 683 692 686 675 675 706 725 719 722 681 669 672 703 706 719 719 719 689 689 692 672 675 717 742 711 697 689 678 669 689 694 711 717 736 706 689 664 669 681 719 742 711 708 700 700 681 683 694 728 728 742 717 700 672 692
106 512 0.0039 906 961 1028 1008 961 969 947 889 875 897 919 831 842 814 797 869 881 878 872 797 753 828 858 936 958 903 856 867 889 942 1000 1000 917 875 883 889 889 919 950 944 872 889 944 1006 981 950 964 906 908 1000 953 994 944 894 906 881 889 881 917 850 883 961 1008 1019 1022 986 911 928 961 953 975 972 903 897 994 1003 1006 1014 969 933 928 953 975 1033 969 886 928 994 1003 1000 922 861 858 867 831 847 847 817 803 814 869 944 1047 1033 956 969 956 1011 1094 1028 975 967 997 1003 1011 989 931 936 964 1011 1003 1017 947 928 1000 994 986 989 944 814 872 961 1014 1006 917 875 861 908 906 900 908 917 914 911 942 981 1042 1000 967 1033 1092 1117 1058 1014 997 961 1003 997 931 919 889 856 886 889 903 858 806 831 819 900 942 911 908 936 883 836 850 922 944 956 928 839 886 958 969 936 903 894 906 894 936 969 992 928 906 875 908 961 975 867 889 919 1000 1003 953 886 819 803 856 953 978 1017 1017 1008 953 994 997 931 950 922 936 989 972 947 928 825 817 828 872 850 850 831 831 822 794 833 861 833 850 769 786 817 847 992 983 925 861 806 839 814 867 908 864 853 847 517
108 256 0.0117 981 1006 1044 1094 1044 1025 1006 1008 1006 1025 1011 1036 1233 1119 1169 1156 1067 1067 1042 1058 1108 1153 1053 428 731 986 1089 1103 1128 1086 989 1142 1144 1078 1111 1006 1067 1128 1100 1075 1067 1056 1033 1164 1078 1086 1036 1058 1028 1167 1108 1064 1061 1094 1083 1156 1056 1025 1078 1117 1111 1092 1086 950 1019 1058 1106 1044 1042 997 1061 1069 1122 1033 1067 1061 1044 1114 1150 1000 1094 1039 1086 1119 1078 1056 1019 1094 1089 1094 1008 992 944 1014 1058 1069 1336 1219 1142 1114 1156 1036 1061 1072 1064 1153 1072 1036 1044 1081 1117 1081 1081 1044 1042 1153 1122 1122 1078 1069 1061 1169 1117 1083 1108 1061 1142 1142 1131 1058 1086 1097 1122 1156 1078 1056 1097 1089 1131 1072 1064 986 1094 1067 1069 1019 1028 1033 1064 1153 1028 1006 1039 1061 1050 1094 1025 994 994 1111 1361 1233 1106 1094 1056 1108 1042 1086 981 1000 1075 1092 1081 1061 1047 1047 1064 1119 1075 1011 1003 1050 1061 1108 1061 1003 1050 1044 1075 1092 1039 1031 992 1075 1061 1033 1003 975 939 1056 1181 1258 1100 1058 1047 1100 1089 1008 969 1025 958 956 547 1611 1128 1036 1083 1022 1106 1011 981 1042 1083 1056 1050 1022 956 1014 1342 1256 1125 1078 1047 1083 1131 1036 983 1039 997 1067 1067 997 931 1006 1028 1256 1281 586 1611 1167 1086 1042 1047 1044 1003 1028
108 768 0.0039 967 1072 1081 1075 1008 1011 983 1036 1075 1172 1186 1114 1078 1117 1125 1011 961 1133 1142 1108 1097 1044 1014 1056 1058 1000 1053 1031 1542 792 1161 1108 1114 1025 1058 1097 1078 1014 1019 1003 994 1031 1256 1211 1153 1111 1144 1125 1078 1039 1014 1175 1089 1078 1081 1011 1089 1114 1089 1014 1131 1033 1103 1106 1117 1053 1022 1053 1075 1114 1042 1036 1025 1061 1047 1167 1058 967 1117 1075 522 1614 1061 992 1019 1058 1075 1017 983 1003 1036 1422 1286 1122 1100 1050 1106 1114 1083 997 1064 1056 1058 1078 1033 936 969 1044 1317 1219 1164 1117 1111 1156 1092 1061 1025 1067 1044 1125 1019 1036 992 1047 1061 1056 1083 1494 1233 1192 1097 1128 1008 1025 1086 1086 1069 1047 1006 1011 1069 1100 1036 1083 1014 1039 1092 1083 1039 1011 1056 1075 1097 1136 1039 1036 1072 1094 1097 1036 1039 1081 1100 1119 1150 1039 1069 1111 1083 1117 1117 1058 1092 1033 1131 1114 1042 1033 1044 1064 1067 1089 1008 992 1042 1047 961 1086 961 994 1286 1222 1125 983 1094 1028 1094 1122 1081 1003 1042 1006 1075 1064 1022 964 986 1064 1161 1072 1019 947 944 983 975 972 947 947 922 958 975 950 936 914 900 897 947 1003 961 950 928 950 947 978 972 911 903 889 942 931 944 942 844 889 867 911 900 892 917 883 836 953 969 1000 939 939
108 1280 0.0195 892 933 900 897 953 967 939 900 925 897 919 997 947 919 1014 933 975 917 567 1503 858 889 931 900 889 961 886 806 831 897 917 958 928 936 839 853 886 944 950 928 936 889 892 911 925 925 889 858 897 908 942 967 914 939 858 972 975 933 1006 972 933 897 989 956 972 1003 881 936 1003 1033 925 1000 950 900 942 478 1472 961 867 925 978 903 975 1042 911 947 922 1056 986 1033 978 933 972 958 1069 1031 967 950 997 953 1058 975 947 933 1008 883 956 1067 922 1003 983 919 1158 1050 1031 1028 1006 953 1053 964 1028 919 519 1489 1036 903 1042 611 1417 567 1192 1036 978 983 986 889 1083 1008 958 1028 1003 1022 992 1039 1028 1017 997 961 1019 981 1025 1008 917 983 1036 997 1069 969 953 925 992 1008 1056 922 969 958 1000 972 1039 1019 956 1047 1047 1019 1058 933 1017 1014 1117 964 1056 944 1017 964 1175 1078 1061 1075 1000 969 1164 1025 1008 1081 953 1306 1308 1117 981 1067 1039 1050 1106 961 1014 1211 1275 1150 1161 1019 1064 1006 1203 1083 1078 1022 1025 1047 1161 1114 1089 1019 1081 1056 1061 1050 1017 1000 1056 986 1019 1006 969 1019 992 1214 1200 997 1069 1036 978 1078 944 925 1106 914 1186 1042 922 1003 936 939 1039 1128 944 1064
109 256 0.0078 694 719 700 717 686 664 647 692 700 703 694 717 711 700 667 658 706 728 728 708 717 692 694 669 675 700 742 725 703 706 678 683 694 683 689 742 733 711 689 686 678 703 697 700 736 758 711 667 683 672 700 714 731 717 756 708 675 681 692 717 736 725 711 728 703 683 669 692 717 744 719 706 714 706 683 669 703 711 747 728 700 697 719 678 558 808 703 747 719 689 658 689 661 658 669 689 692 678 653 639 628 678 653 653 672 689 694 689 636 633 667 692 692 683 706 697 700 678 664 683 739 728 714 736 714 717 703 697 700 772 756 733 736 714 717 708 711 722 781 758 714 708 694 717 706 714 736 781 725 697 692 678 700 714 714 719 756 722 686 689 689 708 711 775 719 750 722 689 675 700 711 742 736 719 725 731 694 675 711 731 756 742 728 714 719 694 681 717 728 758 736 711 694 731 697 703 736 739 767 736 697 681 731 708 706 747 733 747 728 697 678 742 722 722 739 725 711 700 669 658 714 711 711 689 681 678 656 631 631 639 706 658 664 644 636 633 653 617 625 656 700 661 642 650 636 642 653 639 650 683 706 669 636 642 633 656
109 768 0.0156 728 747 750 700 667 706 694 689 708 736 739 744 697 667 694 714 714 703 739 731 731 689 678 708 739 742 733 750 742 728 689 694 722 750 747 733 744 714 728 697 703 739 775 756 739 733 706 728 711 711 758 786 750 714 722 706 719 717 731 758 769 731 686 700 692 714 717 731 744 747 714 681 686 689 733 739 728 728 750 700 675 697 703 756 750 728 733 750 694 683 539 894 756 756 725 717 731 700 683 725 742 758 617 828 706 733 700 703 731 744 756 719 686 703 719 706 708 744 736 756 706 681 711 722 728 725 756 742 739 694 681 714 733 742 731 747 739 722 689 689 731 750 750 725 731 725 722 683 683 753 756 733 725 711 700 711 681 686 744 758 608 825 706 697 706 711 719 750 769 742 697 703 697 719 733 736 750 767 725 683 694 700 739 739 744 747 750 703 686 706 706 761 747 736 736 742 700 686 722 725 772 589 900 714 747 708 692 736 747 767 733 708 711 725 711 700 744 747 758 719 692 722 719 722 731 753 764 753 697 678 719 717 728 728 742 739 739 697 672 722 733 733 725 739 731 717 694 689 742 744 739 736 728 725 708 694
109 1536 0.0195 722 683 711 706 700 708 742 597 906 694 686 717 711 706 722 739 742 736 700 681 714 722 639 833 739 742 719 692 683 714 736 750 728 733 719 717 692 692 725 761 742 719 717 692 703 692 700 731 775 731 711 706 681 706 708 717 731 772 739 514 875 683 728 722 744 736 775 728 686 694 694 731 625 853 739 772 703 681 697 697 739 739 731 733 742 683 675 692 700 739 744 728 708 725 689 675 697 714 750 742 719 697 714 689 678 703 722 653 836 714 711 722 694 692 739 731 756 722 692 692 717 700 706 744 731 744 719 689 683 728 725 714 739 733 733 694 686 697 739 733 725 736 719 722 683 686 697 753 731 719 728 697 703 703 689 697 767 744 717 719 697 703 722 703 706 772 750 719 697 697 706 717 717 719 758 742 714 686 697 708 731 725 731 756 736 706 686 697 717 750 739 722 747 722 686 672 703 717 753 722 714 744 714 689 681 719 744 764 731 708 719 703 689 692 722 756 764 725 694 719 706 697 711 731 747 761 711 675 717 694 703 731 744 753 744 703 683 728 708 711 739 742 747 714 689 686 722 719 728 739 719 733 706 683 681 736
109 2048 0.0117 692 672 700 689 697 719 753 711 664 669 669 686 694 714 706 739 708 675 664 658 681 686 692 686 692 700 639 622 594 600 614 633 664 683 664 694 631 639 633 656 672 692 678 667 658 683 644 642 672 700 728 733 689 661 681 683 672 672 717 717 722 694 672 681 714 708 708 747 744 758 714 697 725 744 739 747 756 756 750 711 697 747 639 872 747 747 725 717 692 683 731 742 722 736 714 717 714 700 706 772 758 739 733 700 731 711 711 744 794 758 725 733 708 725 717 731 769 781 750 714 722 725 742 742 753 792 775 722 711 714 747 750 744 756 792 728 700 706 706 747 750 750 739 758 700 681 706 703 747 753 744 717 742 700 678 706 706 744 733 703 683 672 639 656 622 694 683 711 650 678 631 683 631 658 667 692 678 700 653 622 717 661 653 650 681 667 642 669 633 622 664 686 694 686 714 703 697 686 675 692 750 742 722 736 725 717 694 694 725 769 750 739 733 714 722 706 697 758 772 681 781 703 708 719 692 694 753 764 725 700 697 697 586 847 717 789 742 728 703 711 725 736 744 756 769 742 703 706 689 728 744 744 739 769 728 686
111 256 0.0000 822 839 881 878 869 847 858 842 842 853 894 906 881 878 853 842 906 925 889 853 864 858 839 894 894 903 842 864 869 828 850 900 881 839 878 828 797 889 881 869 833 878 831 811 886 886 867 853 842 814 806 886 886 864 850 822 839 828 886 883 892 853 853 822 803 869 917 889 844 842 858 836 892 892 892 833 864 831 814 889 900 856 828 842 833 819 894 886 878 864 889 853 825 883 892 881 853 839 819 819 897 894 872 847 847 847 864 881 875 906 878 867 825 839 911 903 850 869 847 853 811 886 883 850 869 853 831 833 883 900 856 864 844 819 814 903 883 842 861 858 850 811 869 892 844 867 842 808 806 908 900 861 836 858 842 836 900 889 856 894 850 828 825 908 894 872 872 853 856 872 906 889 858 861 847 853 842 886 903 856 858 822 836 853 914 919 861 869 858 825 842 881 900 842 864 828 822 850 900 864 836 856 839 844 847 903 892 864 886 847 839 875 903 922 872 842 822 836 894 908 881 853 861 839 811 894 892 925 864 847 856 844 903 919 889 856 869 864 844 881 897 892 878 850 842 833 900 897 869 850 839 850 856 917 900 867
111 768 0.0000 828 900 908 897 867 861 828 839 925 892 878 872 869 828 817 881 872 889 878 836 842 842 917 889 853 886 853 844 847 897 878 853 903 853 819 836 900 917 878 869 869 797 844 906 869 858 864 839 836 828 858 886 869 881 833 850 850 931 867 842 867 856 836 847 889 892 900 867 828 814 783 903 881 839 853 844 842 875 897 894 894 886 858 847 892 933 889 864 856 831 861 828 878 872 842 844 831 817 850 886 911 864 864 839 836 914 928 903 850 861 833 814 875 864 861 858 869 828 817 908 908 931 778 842 833 808 875 897 867 861 833 828 811 883 881 883 842 847 797 814 900 894 872 847 867 869 831 869 892 917 861 828 833 831 897 900 917 828 817 850 814 861 858 889 850 850 833 847 906 939 911 867 883 861 867 931 911 867 900 869 867 839 911 911 858 869 853 833 869 939 861 844 858 811 833 831 881 847 847 864 833 858 789 881 889 844 853 831 839 814 908 831 842 844 822 817 803 861 886 864 839 831 833 814 892 861 872 847 858 831 822 875 886 900 875 839 819 825 892 881 847 861 803 822 817 858 856 850 833 842 811 800 869 889 892 825
111 1280 0.0000 900 894 914 900 861 861 856 917 892 856 858 836 856 867 908 903 850 886 881 861 881 944 925 872 875 847 850 925 908 900 872 889 842 819 903 894 892 869 864 833 864 914 911 872 897 864 867 858 911 889 883 881 844 828 861 917 917 858 878 861 856 856 875 897 842 878 858 831 861 900 906 853 847 850 819 903 933 922 875 897 903 875 928 933 878 897 858 842 847 917 903 858 878 861 853 867 914 928 881 903 867 847 922 942 933 906 894 894 864 922 925 900 917 889 883 886 922 942 878 881 856 853 883 919 903 856 883 856 839 897 917 908 872 861 844 836 911 911 875 856 875 864 872 911 906 883 900 861 842 844 917 922 889 897 856 875 883 894 897 853 861 833 814 856 883 914 847 839 833 819 842 889 869 822 847 836 825 842 889 883 878 889 856 825 889 925 883 850 869 833 836 869 886 886 861 856 833 800 872 872 881 825 817 797 811 836 869 858 825 825 825 825 817 864 867 847 836 789 789 778 853 864 839 817 839 839 806 867 875 881 847 844 814 794 864 894 869 817 842 814 797 864 867 858 831 850 811 808 833 864 864 828 822 789 800 817
111 1792 0.0000 883 847 872 825 797 864 875 864 850 839 786 789 844 853 842 808 817 792 814 814 844 850 836 850 836 819 822 875 889 842 844 822 803 786 883 864 844 808 839 814 803 853 878 867 828 822 789 778 856 858 861 814 833 806 825 811 867 861 842 847 825 808 822 864 875 833 858 831 839 817 867 856 847 808 822 814 794 864 889 861 822 831 825 800 872 872 869 828 853 825 797 858 886 886 842 844 825 811 872 875 858 817 844 817 806 831 867 858 844 842 786 814 783 825 847 831 822 775 789 783 831 822 828 781 797 781 758 772 819 833 819 808 786 786 769 831 847 833 792 808 800 781 792 839 842 794 828 803 800 783 875 875 856 831 828 811 808 881 889 867 842 828 825 803 856 869 881 825 831 794 814 878 872 878 836 842 831 794 850 864 889 833 836 817 817 861 911 869 828 867 853 822 833 889 883 856 847 808 819 858 892 894 831 847 814 825 836 864 850 828 844 828 811 819 886 892 847 858 822 836 819 875 864 878 792 822 814 797 844 864 842 811 783 792 775 814 850 836 778 811 792 778 744 803 811 781 756 758 739 733 744 814 778 786 767 778
112 256 0.0000 717 719 706 717 717 711 706 736 714 717 725 714 733 719 733 717 717 742 728 725 708 717 706 714 719 708 683 731 697 714 692 719 711 700 728 692 700 692 708 689 669 706 689 689 703 717 711 706 739 714 708 697 711 711 700 731 692 686 722 706 703 686 719 703 717 728 722 692 714 722 711 694 714 703 708 708 731 694 711 742 728 731 711 731 703 731 742 731 719 742 719 725 706 722 714 708 736 700 719 706 728 700 703 700 694 692 697 692 683 686 700 686 700 672 692 669 689 675 681 675 672 694 672 689 664 683 681 683 678 689 664 683 689 683 689 675 686 708 703 708 689 700 689 711 714 692 714 692 717 692 725 697 692 714 703 700 669 694 675 683 697 678 683 672 694 686 672 678 681 681 664 706 672 672 686 700 678 664 697 675 678 686 703 692 678 728 697 708 686 719 700 714 722 706 703 717 719 719 689 719 694 706 725 708 703 700 733 711 700 711 706 706 731 736 708 719 742 731 703 728 694 714 711 731 708 708 714 708 700 669 717 678 692 700 706 689 703 714 694 700 683 686 692 683 708 669 689 686 706 694 692 711 672 711 689 717
112 768 0.0039 683 686 697 686 658 692 700 692 667 711 669 694 700 711 686 686 714 694 700 675 689 692 692 700 703 686 706 722 703 706 703 697 694 694 703 689 683 689 700 686 689 700 689 697 700 703 686 694 694 686 697 658 700 683 681 700 681 694 686 708 694 700 689 692 686 706 692 681 678 683 692 683 664 683 672 681 686 689 683 681 694 697 700 672 697 681 689 697 694 689 683 708 692 692 689 678 697 694 719 700 697 722 706 711 669 714 683 694 703 706 700 697 725 706 694 708 706 697 711 708 706 689 731 694 700 686 703 694 686 719 694 686 706 717 714 683 725 697 706 722 714 692 694 728 706 703 694 708 689 708 711 692 683 706 706 694 686 706 689 678 697 697 678 689 714 683 703 683 711 681 706 694 692 689 692 714 683 683 697 689 689 700 711 686 694 714 703 711 678 711 678 692 697 681 678 678 703 686 697 681 694 706 711 714 697 694 700 703 706 686 692 686 689 694 703 686 694 711 717 714 706 714 719 708 714 694 708 703 714 722 714 750 742 761 628 964 811 839 792 747 750 731 722 722 706 719 686 733 697 708 686 706 700 694 717 686
112 1280 0.0000 697 697 728 703 719 697 714 700 711 714 697 694 714 700 719 686 714 697 722 725 722 714 714 717 725 694 706 689 706 717 714 711 703 731 706 708 700 706 703 711 714 706 711 719 703 719 697 717 714 711 719 711 703 714 714 717 689 719 706 714 714 722 692 692 717 711 686 694 697 706 706 711 706 689 706 703 711 681 706 694 700 711 706 689 700 717 703 694 717 706 708 711 722 700 694 714 706 708 686 717 697 694 711 700 692 700 711 700 686 703 697 692 703 711 694 686 722 697 711 694 733 722 728 742 728 728 742 742 731 711 739 714 719 739 722 717 728 753 728 708 736 711 725 731 708 700 708 714 686 692 697 692 692 711 719 706 706 733 706 728 694 714 692 708 708 672 692 703 694 700 681 714 689 700 706 697 697 692 725 683 706 692 703 714 722 719 714 717 744 714 725 706 703 714 706 719 703 700 703 708 728 689 725 725 728 742 725 739 733 733 744 714 731 722 725 728 717 722 711 725 714 708 708 714 703 706 711 697 692 717 692 692 689 697 694 694 711 697 697 703 717 711 686 706 706 708 708 722 703 697 736 708 708 694 714 706
112 1792 0.0000 717 722 725 714 706 728 711 725 736 722 722 725 739 722 703 731 711 725 725 719 717 714 742 708 719 708 717 719 725 725 711 711 733 717 722 706 714 722 719 736 714 719 731 731 744 706 736 722 728 739 725 717 719 725 725 703 728 722 719 744 731 733 739 744 742 714 744 731 733 744 744 736 750 753 742 733 756 750 747 769 742 731 764 736 731 731 728 725 736 739 728 719 761 750 725 750 733 728 739 733 719 714 747 722 714 728 714 714 728 736 728 706 744 717 711 719 717 717 725 742 714 717 753 733 731 736 739 722 739 736 711 717 742 717 697 711 708 708 708 742 706 728 739 728 722 703 731 708 731 733 719 714 742 733 742 719 742 728 747 753 725 722 736 739 722 714 725 708 717 731 722 714 731 733 736 708 742 714 722 736 728 736 731 739 731 722 739 719 725 744 728 733 733 747 742 719 750 722 744 742 733 733 736 750 739 731 736 742 744 750 742 733 744 747 750 717 742 728 733 744 725 733 736 739 742 714 731 722 728 728 719 725 725 731 728 703 725 719 719 733 728 728 739 736 739 714 728 736 717 736 725 714 736 719 736 692
113 0 0.0039 1147 1064 1000 1050 1083 1158 1003 1053 1097 1028 931 967 1072 1022 892 1053 1200 1092 975 1114 1075 928 536 1119 1125 1047 1022 1056 1144 1097 994 1047 1044 1050 1017 1028 1033 1067 928 978 1139 1039 914 994 1053 1081 992 1019 1056 1053 944 1108 1139 1086 981 1000 1006 1067 1022 994 1122 989 1019 1136 1131 975 947 1064 1058 994 1064 1083 1019 903 1114 1128 1075 1064 1067 1025 1014 1011 992 1028 983 1014 1086 1072 947 1014 1064 1083 1053 1031 1100 1058 922 1019 1128 1086 978 992 994 1089 1011 1000 1106 1042 936 1094 1103 989 953 1072 967 1031 1014 989 994 911 978 1111 1164 1008 1025 1053 1083 1028 1033 1100 1058 914 1044 1142 1072 975 975 972 1094 1008 1047 1122 1081 1056 1131 1122 992 1050 1031 1158 1056 1033 1047 1036 883 1042 1142 1053 958 994 1008 1008 919 1036 1042 1008 886 1144 1136 1031 967 992 1058 1122 1042 1036 1072 1036 928 931 1033 1133 872 783 797 936 881 919 1258 1253 1100 1267 1178 1189 1092 1072 1167 1200 1081 975 1031 1161 1128 989 1081 1056 994 969 986 1028 1042 1028 939 1083 1144 1061 872 875 989 1161 1083 1050 1103 1036 975 1053 1044 1047 950 983 1086 1172 1000 961 981 900 1056 1167 1156 1003 1058 1069 1111 978 994 1108 1056 961 1083 1161 1075 1011 1028 1103 1103 994
113 512 0.0000 1031 922 944 1081 1103 942 989 994 994 1053 1031 1067 1064 1008 972 1183 1106 906 1031 1069 1017 1089 1125 1044 925 900 917 1172 1044 1097 1086 1000 986 1083 1064 1058 1006 964 1114 1103 972 928 989 975 961 1006 1044 1075 917 847 1142 1114 994 1025 1067 1028 1036 1125 1047 1069 1017 967 1069 1089 1047 917 994 1100 1133 981 1047 1092 947 986 1044 1025 981 886 972 1086 1028 936 994 997 906 1025 1097 1047 1083 997 1014 1147 1103 936 1019 1042 1011 1039 1069 1036 972 869 878 1081 1106 997 1017 1017 983 1017 1081 1039 969 983 997 1147 1053 978 1036 1014 1083 989 989 1050 1064 936 1111 1167 997 931 961 989 1106 1047 1053 1019 967 861 1000 972 1019 1000 950 917 1031 981 953 1072 1075 917 1058 1119 1072 956 975 997 1106 997 931 1014 1058 978 1125 1106 1033 950 981 1008 1139 1047 1000 994 942 864 819 778 811 828 758 728 772 1353 1236 942 825 803 756 1211 1139 1036 1019 1100 1103 1128 1114 1092 931 833 883 1008 1044 1042 1064 997 892 958 900 972 1069 1081 950 903 836 778 758 744 739 669 806 1028 986 944 1156 1089 1194 1192 1100 1128 1122 1058 1056 994 1033 1053 997 1144 1156 1111 1050 892 864 1142 1111 989 1133 1122 1086 1086 1044 1003 1000 947 875 922 1100 1117
113 1024 0.0039 1058 964 967 978 1047 978 975 1211 1092 986 986 1056 1067 1094 1069 1069 1100 983 1019 1094 1092 1033 981 1006 1094 1006 914 1097 1064 972 1058 1039 1089 986 953 1036 1158 1028 858 994 1031 1022 1100 1083 1022 869 922 986 1150 975 1025 1097 1003 989 1050 1061 944 847 967 1089 1119 1008 1031 1022 903 1064 1128 1044 983 1056 1008 1072 1033 1033 1058 983 875 1036 1136 1136 1058 1083 1086 1161 1111 1114 978 958 1142 1025 1008 969 953 819 1014 1094 1017 917 944 939 931 875 850 842 858 783 819 950 1050 906 861 931 989 850 875 906 917 814 808 900 1058 1078 1111 1078 986 1056 1172 1044 1011 1100 994 1008 1133 1056 981 1036 1031 906 1014 1203 1131 1106 1044 1194 1161 1078 1131 1131 1094 1244 1086 1008 1100 1097 1094 1083 1028 958 1064 1083 1067 1014 1003 1031 1000 1119 1033 997 936 933 875 989 1197 1117 1031 1008 889 897 936 953 825 839 906 956 986 928 928 931 886 828 881 981 864 764 764 792 1131 1144 1050 1044 1019 903 800 900 1200 1072 842 836 933 1033 1125 1014 936 1039 1019 853 881 956 992 1014 486 944 1019 1014 897 889 969 917 819 908 956 989 936 944 1006 1108 972 1011 1092 1067 1006 1208 1117 1011 1064 1061 1078 1158 1092 989 1072 1075 1053 1122 1119 964
113 1536 0.0000 956 872 842 1106 1086 1044 1003 997 906 969 964 908 914 831 908 836 903 1014 1083 964 936 925 911 783 872 886 886 869 767 767 1006 1169 947 819 825 931 833 853 1014 1078 997 831 811 894 1047 897 844 1000 1014 972 992 989 933 908 797 769 792 1011 1044 903 919 981 1000 992 961 992 1011 867 850 1025 1006 906 881 981 1047 906 953 992 1022 1042 1008 1083 1139 1100 1006 1011 1003 1050 1072 1097 1131 1053 1119 1167 1117 1086 1081 994 1150 1119 1086 1053 967 1019 1150 1025 997 1119 1008 903 1003 1058 917 806 856 1092 1114 969 992 1092 1006 961 1047 1000 903 897 967 908 1003 1044 1044 1039 939 1011 1156 1028 1006 1008 969 814 889 953 903 819 817 797 836 828 792 744 725 881 781 844 1003 1108 950 792 853 903 961 1025 892 953 1022 1036 908 1106 1053 953 947 983 1061 1139 1128 1081 1042 1067 1075 1081 961 944 964 1017 967 1028 1044 908 908 986 1158 1061 911 933 797 747 683 767 1386 1094 1097 1122 1117 964 942 1086 1047 953 786 1025 1158 1108 989 947 1019 1067 986 875 950 1058 1047 1011 1042 1025 989 875 922 1111 1069 894 914 944 1019 1142 922 864 942 883 817 1006 1106 1011 936 1025 1033 1061 1058 1086 956 817 794 850 931 1250 1156 989
114 1280 0.0000 886 917 861 833 828 844 894 875 936 844 833 850 808 922 878 911 858 819 853 819 911 919 900 867 858 861 864 944 917 917 928 850 878 925 950 942 914 886 878 842 936 947 903 889 886 853 850 947 925 869 894 886 831 858 914 919 878 872 872 831 906 914 903 850 858 867 811 897 919 922 844 844 861 825 919 911 917 864 842 872 831 914 881 919 853 842 872 836 919 908 867 886 828 856 842 908 881 897 861 814 894 864 922 903 892 861 822 856 892 878 886 847 842 836 828 892 875 867 853 864 822 819 917 886 903 847 856 847 836 911 925 900 853 881 831 819 936 886 886 856 883 833 819 986 933 900 911 889 875 864 994 939 889 911 919 842 936 986 872 872 844 864 811 881 944 856 836 836 836 822 883 925 883 839 831 869 844 894 936 886 850 842 869 836 900 928 856 864 853 853 864 903 919 869 858 861 839 922 931 953 883 856 864 831 914 869 917 858 825 847 822 908 906 894 878 822 858 817 919 925 878 889 867 847 861 961 897 903 925 842 864 900 942 914 894 911 881 847 953 956 919 914 883 878 867 925 950 878 897 892 847 900 947 942 844 897
115 0 0.0000 992 922 1003 1161 967 972 1033 1017 947 919 1047 1039 931 989 944 906 878 933 1000 897 878 944 969 925 867 928 928 953 881 928 933 917 875 881 897 878 850 978 933 864 983 1061 942 1058 1139 1011 983 1047 1044 986 1003 1044 986 961 978 978 872 892 933 933 833 869 956 936 972 997 947 894 919 1011 914 978 1022 1039 981 1006 997 933 872 906 908 886 861 892 1019 889 917 972 947 933 975 1069 953 950 961 967 906 944 972 969 883 1025 958 900 1019 1042 878 908 1061 1047 900 1022 1097 939 939 1008 1017 889 928 994 914 842 883 956 903 886 967 986 894 956 1022 931 933 1067 1008 881 864 917 867 875 917 939 917 967 983 919 894 1028 992 911 958 1025 911 864 919 911 836 861 928 911 864 917 1108 983 928 1028 964 856 953 1108 958 947 1008 981 858 939 967 964 875 928 1028 925 842 983 1058 922 950 1050 997 869 861 875 875 828 881 961 906 931 1197 1031 1033 1058 1061 994 1042 1028 983 1039 1028 1025 975 994 1011 958 981 992 1008 928 936 1011 1003 922 944 1022 983 897 894 917 867 878 872 900 875 950 992 981 892 933 886 847 878 881 825 831 878 833 806 836 867 853 953 997 961 1047 1006 931
115 512 0.0000 1069 978 911 1025 1025 903 897 972 983 961 875 978 1031 1053 900 897 931 936 844 875 969 989 886 933 1036 986 856 950 1047 933 881 931 925 850 872 911 892 864 906 969 969 894 978 1119 997 975 975 956 878 933 983 925 911 917 997 950 975 989 953 906 939 925 908 878 883 931 906 872 933 964 994 903 950 1019 925 894 917 875 878 931 994 936 944 1050 942 883 939 961 931 897 969 975 861 914 931 886 858 917 1036 911 856 1033 1047 911 886 978 958 869 894 931 892 836 858 931 911 828 886 969 886 833 867 908 867 828 844 1022 897 836 906 925 883 828 886 1008 933 844 889 961 867 836 944 1011 878 836 889 1064 939 967 1064 969 847 961 986 911 861 903 992 886 850 889 867 853 858 928 878 875 839 814 811 906 917 836 844 936 881 839 897 972 908 844 917 1022 917 850 986 1025 914 858 986 961 858 894 975 939 856 900 989 889 844 911 967 903 839 869 1003 903 850 925 914 861 822 878 958 872 811 886 864 864 797 867 900 853 825 892 956 886 853 950 1008 897 933 944 947 881 872 986 1003 875 1025 1058 931 886 900 986 875 925 1128 1072 933 947 1019 886 850 872 883 869
115 1024 0.0000 1042 1053 892 897 917 953 875 917 961 986 875 903 1061 1067 900 911 931 869 808 894 908 881 814 886 928 914 836 911 986 981 858 922 975 858 814 850 856 850 808 825 836 842 808 831 883 897 850 881 933 928 869 939 1136 983 939 967 919 839 897 989 878 872 894 947 889 850 886 936 881 850 869 911 956 869 878 903 889 853 883 900 911 861 986 953 925 889 900 908 961 858 900 967 1078 956 994 1056 928 847 886 956 939 872 850 875 858 819 858 875 864 831 869 936 917 833 853 897 867 833 853 839 833 831 800 864 819 900 917 983 972 1028 1211 1003 911 869 836 856 867 869 894 858 978 1239 1056 1144 1097 1039 1033 1014 911 883 889 847 839 903 936 908 1019 1097 942 947 1097 950 917 919 922 889 914 925 892 861 983 956 911 900 983 1056 922 950 942 875 878 989 1069 1044 917 961 994 906 883 883 928 869 881 975 967 869 914 900 911 831 861 858 897 872 878 925 917 881 908 911 864 847 928 953 844 833 833 922 836 811 867 822 781 817 789 842 797 794 856 858 836 844 956 919 872 875 892 878 858 875 953 889 917 933 992 867 861 906 850 886 1036 925 961 1114 1014 914
115 1536 0.0000 1050 1081 1044 1019 958 1050 1050 944 1042 1028 925 867 894 825 792 831 886 831 797 819 800 803 778 758 764 775 828 803 786 831 922 822 869 1006 1081 906 950 994 950 842 872 942 1069 1022 878 936 1133 1064 953 936 950 956 883 842 872 969 944 894 956 1208 1036 1008 997 969 908 856 850 897 831 897 919 1044 992 1128 1119 1031 1106 1061 989 1044 969 969 886 864 833 831 917 992 892 994 914 833 836 892 1014 847 836 1006 986 956 1156 1108 969 933 981 861 825 867 828 839 900 911 908 839 869 911 894 844 953 850 814 817 800 786 819 800 922 950 872 894 1186 1117 994 1069 1061 975 1064 1036 1000 1094 1147 1008 1114 1075 1011 1100 1047 997 1036 1050 958 917 922 858 842 833 883 894 822 831 850 858 828 808 783 800 817 797 814 881 836 853 883 950 964 867 919 981 1203 978 856 925 881 878 861 817 908 936 897 867 856 897 967 872 864 900 889 897 833 803 819 825 808 808 831 856 875 844 872 1269 1181 1125 1033 1092 1050 1017 1050 1006 967 1042 1058 997 1056 1011 958 928 953 889 908 1208 1014 1189 1036 1086 1078 1100 1106 994 897 817 753 758 747 728 703 711 717 714 739 700 747 797 814 758 767 822
117 0 0.0000 1136 1133 1117 1183 1153 1189 1189 1178 1192 1178 1161 1219 1206 1181 1256 1203 1244 1222 1247 1244 1225 1225 1192 1222 1139 1158 1150 1164 1231 1231 1211 1258 1206 1258 1228 1197 1217 1189 1228 1194 1219 1267 1186 1256 1244 1203 1211 1222 1214 1208 1233 1211 1211 1242 1192 1225 1153 1200 1169 1156 1225 1175 1222 1167 1225 1225 1178 1236 1119 1211 1178 1208 1228 1231 1261 1203 1258 1208 1253 1203 1219 1200 1181 1233 1219 1206 1228 1194 1189 1161 1222 1178 1200 1225 1203 1219 1175 1225 1175 1186 1181 1150 1192 1164 1203 1194 1194 1236 1194 1183 1214 1186 1239 1214 1208 1203 1175 1222 1164 1192 1186 1131 1197 1181 1189 1189 1192 1206 1189 1156 1175 1161 1156 1228 1206 1289 1236 1256 1233 1233 1261 1219 1264 1203 1236 1181 1200 1200 1153 1172 1189 1139 1181 1164 1194 1164 1181 1206 1136 1192 1189 1175 1225 1156 1208 1161 1203 1203 1172 1219 1189 1206 1214 1178 1183 1156 1158 1203 1128 1175 1172 1128 1167 1133 1156 1144 1147 1197 1156 1197 1172 1203 1175 1181 1194 1169 1156 1181 1144 1181 1167 1197 1211 1192 1256 1186 1208 1203 1178 1239 1183 1231 1183 1244 1231 1225 1203 1231 1203 1189 1211 1147 1200 1178 1178 1189 1156 1183 1164 1158 1206 1194 1206 1242 1203 1236 1167 1186 1197 1158 1192 1169 1186 1217 1186 1211 1175 1197 1192 1175 1186 1194 1169 1214 1164 1197
117 512 0.0039 1194 1208 1156 1203 1164 1172 1183 1181 1219 1142 1222 1167 1161 1200 1192 1211 1175 1206 1233 1161 1186 1197 1169 1200 1192 1200 1219 1153 1169 1086 1119 1086 1092 1119 1103 1153 1103 1186 1172 1172 1189 1169 1203 1156 1211 1178 1181 1181 1183 1181 1142 1192 1136 1178 1156 1222 1186 1203 1225 1161 1203 1206 1183 1194 1175 1217 1164 1197 1192 1181 1189 1181 1200 1172 1175 1208 1175 1222 1175 1222 1158 1181 1167 1150 1197 1144 1161 1147 1117 1122 1072 1053 1025 992 986 950 944 936 911 931 856 586 986 944 942 958 967 958 992 1008 1014 1044 1075 1111 1142 1153 1206 1186 1211 1189 1206 1158 1192 1200 1153 1144 1094 1122 1025 1042 1056 1008 1064 1058 1092 1147 1142 1222 1181 1231 1200 1253 1186 1258 1197 1247 1200 1242 1208 1208 1228 1217 1231 1214 1236 1200 1225 1211 1203 1197 1186 1200 1136 1167 1139 1133 1142 1133 1178 1131 1194 1158 1211 1167 1192 1181 1194 1222 1183 1222 1164 1222 1178 1225 1206 1222 1197 1181 1192 1161 1172 1197 1161 1183 1172 1192 1181 1175 1178 1150 1153 1167 1147 1169 1147 1161 1147 1172 1172 1158 1181 1150 1164 1119 1156 1150 1197 1200 1189 1222 1161 1206 1178 1197 1217 1175 1214 1161 1211 1183 1183 1197 1156 1200 1194 1200 1203 1164 1186 1133 1156 1136 1156 1142 1172 1186 1156 1181 1214 1175 1206 1150 1161 1181 1161 1211
117 1024 0.0000 1192 1222 1150 1203 1178 1194 1183 1158 1169 1158 1161 1197 1153 1186 1144 1172 1169 1144 1203 1150 1194 1186 1200 1172 1189 1214 1192 1261 1181 1225 1183 1206 1208 1178 1203 1164 1189 1200 1200 1225 1192 1211 1192 1186 1233 1167 1192 1203 1217 1181 1211 1197 1175 1217 1147 1186 1172 1181 1197 1153 1194 1164 1144 1169 1125 1183 1172 1175 1225 1172 1194 1183 1169 1183 1181 1194 1158 1183 1197 1172 1208 1153 1181 1128 1178 1172 1153 1181 1147 1147 1139 1156 1186 1131 1197 1147 1186 1178 1211 1206 1161 1172 1150 1175 1183 1139 1175 1169 1161 1175 1150 1189 1183 1186 1219 1172 1183 1156 1203 1172 1211 1217 1186 1214 1153 1211 1139 1192 1175 1167 1197 1156 1189 1150 1183 1172 1133 1172 1142 1189 1169 1206 1200 1167 1189 1181 1167 1203 1161 1189 1178 1189 1194 1164 1206 1150 1150 1175 1144 1194 1122 1208 1167 1172 1197 1172 1186 1150 1206 1186 1164 1206 1164 1189 1175 1178 1178 1158 1175 1183 1150 1197 1147 1150 1142 1144 1186 1114 1194 1139 1167 1167 1175 1203 1158 1183 1161 1147 1167 1167 1169 1131 1194 1150 1178 1194 1175 1175 1183 1167 1172 1142 1192 1150 1158 1189 1136 1147 1128 1167 1172 1153 1192 1142 1167 1125 1156 1169 1122 1186 1133 1161 1136 1181 1178 1142 1189 1167 1175 1197 1150 1192 1158 1197 1175 1158 1178 1158 1156 1189 1161 1172 1136 1197 1153 1169
121 256 0.0000 967 986 975 956 967 964 972 997 972 972 978 997 1014 1006 986 1019 1028 1014 1036 1008 1019 1033 1000 1014 1017 1011 1006 1014 1017 1036 1025 1033 1061 1042 1031 1036 1031 1025 997 1008 1028 994 989 1003 994 992 1003 989 981 994 997 981 1006 1006 1028 1014 1000 1036 1017 1014 1019 1022 1033 1022 1006 1031 1011 981 1011 972 967 1000 956 961 981 956 978 1000 1025 1042 1017 1025 1044 1036 1022 1019 1014 1006 1011 994 1011 1036 1006 969 994 975 997 1000 994 1039 1028 1025 1039 1000 1033 1058 1044 1017 1047 1036 1008 1000 1011 1028 986 986 1025 1000 997 1017 997 1006 1014 1003 1008 1000 994 981 983 967 1014 992 978 1008 969 958 969 967 961 967 919 911 942 911 878 897 861 853 869 853 867 883 897 908 894 906 889 892 894 875 864 889 869 858 872 883 894 906 914 936 958 944 919 942 928 956 967 961 956 967 964 950 950 939 928 950 936 936 975 956 961 972 986 997 1022 986 958 986 967 942 972 969 986 981 956 939 972 953 919 956 933 947 969 958 981 1003 997 964 992 983 972 978 964 994 997 986 964 983 992 994 950 956 969 936 917 928 908 939 981 958 967 1003 975 947 978 950 933 942 939 967 1006 994 1011 1014 1022 994
121 768 0.0078 1017 1000 997 1025 989 986 989 944 939 983 967 986 1000 986 1000 992 989 972 964 978 989 975 939 961 975 992 1014 1011 1014 1019 983 1006 1011 1011 972 992 981 1006 975 969 1003 981 983 997 964 1014 1033 1017 1022 1025 1033 992 1022 1006 1019 1003 997 1028 1017 981 1011 994 1017 1017 1006 1011 1025 1022 992 1033 1008 1028 1008 1003 1036 1003 983 997 978 975 972 969 967 986 978 972 975 978 997 981 1000 1000 978 981 1022 1019 1011 1028 1014 1011 1042 1031 1011 1017 1003 1019 1022 1028 1050 1028 1008 1014 992 1017 1028 1008 1028 1017 1003 1017 994 1025 1058 1036 1039 1053 1036 1017 1028 1014 1022 981 969 1031 994 972 1008 997 983 992 989 992 1006 1003 1011 992 1006 1019 989 972 1003 972 978 986 967 986 983 994 994 1014 997 986 975 1003 1028 1003 989 1022 1019 975 1003 994 981 1006 983 983 975 981 961 978 964 956 942 972 994 975 989 983 961 981 1000 1003 1003 1039 1008 956 978 956 947 961 928 919 922 972 942 953 953 983 1003 1022 1031 1058 1033 1053 1050 1067 1086 1067 1089 1072 1069 1036 1033 1044 1069 1014 1017 1064 1053 1039 1042 1025 1047 1047 1017 1067 1061 1017 1042 1044 1078 1042 1042 1047 1050 1031 1039 700 1267 572 1458 1056 1022 989 1042 1025
121 1280 0.0000 1019 1033 1047 1028 1008 1031 994 1003 997 1006 1017 1036 1006 1025 1033 1017 1036 1008 1014 1036 1014 1006 1022 1014 992 997 1014 1022 994 986 1014 972 942 997 975 1019 1025 1014 1050 1069 1050 1058 1061 1072 1086 1056 1089 1100 1064 1058 1058 1058 1069 1017 1064 1061 1064 1031 1031 1053 1047 1031 1044 1075 1058 1036 1058 1061 1078 1017 1044 1050 1044 1031 1017 986 1033 1008 994 1039 1031 1031 1058 1050 1036 1033 1028 1056 1019 1033 1056 1031 1036 1050 1031 1033 1022 989 1008 997 1025 1033 1033 1047 1042 1011 1056 1064 1053 1072 1042 1056 1075 1064 1064 1067 1075 1064 1042 1058 1053 1058 1067 1047 1058 1044 1033 1050 1069 1064 1078 1058 1050 1042 1033 1047 1058 1050 1039 1056 1069 1053 1033 1028 1036 997 1008 1014 1019 1025 1025 978 1025 1022 1025 1047 1044 1050 1039 1025 964 978 1028 1019 1017 1028 1056 1047 1058 1053 1061 1053 1053 1050 1044 1019 1025 1042 1011 983 1003 1022 1025 1017 1011 1028 1008 917 933 917 903 919 900 886 928 914 925 939 922 911 936 928 922 956 922 933 939 931 967 986 956 944 983 956 939 969 969 978 975 978 969 1006 997 986 997 989 1022 994 975 989 967 978 972 969 981 981 958 961 992 969 931 947 933 914 942 908 903 919 906 883 897 892 881 894 875 856
122 0 0.0000 647 653 658 608 656 653 672 658 669 667 678 675 692 697 697 692 686 681 708 697 694 672 703 697 692 664 731 683 661 672 703 681 681 633 669 672 658 653 664 683 669 667 656 700 686 681 694 694 700 694 717 708 700 694 717 700 694 683 703 694 689 703 708 694 694 694 706 708 706 683 703 706 703 708 728 725 708 683 756 706 725 708 728 675 719 711 711 658 678 692 700 678 672 656 706 681 694 686 692 694 694 697 711 686 692 683 697 683 672 686 700 683 689 706 706 706 706 711 706 714 711 717 711 675 686 703 697 697 656 683 706 689 697 708 672 697 692 711 664 669 667 692 667 669 650 664 694 675 686 700 692 678 692 703 694 700 703 739 719 717 711 731 706 722 708 731 706 719 714 717 711 711 733 719 719 706 742 742 761 742 742 739 725 739 728 714 700 728 714 700 697 728 697 697 689 706 681 706 681 700 683 675 703 700 692 675 667 708 681 681 664 686 656 683 689 697 686 678 697 714 689 700 672 686 683 689 697 706 697 700 711 744 731 731 711 750 739 750 761 736 711 717 739 719 719 692 758 739 747 750 733 722 728 739 747 756
122 512 0.0000 694 722 706 708 681 697 697 689 683 703 661 678 664 694 642 653 636 681 633 658 631 647 672 650 636 639 653 636 642 611 639 636 614 617 633 653 636 606 619 650 647 639 603 642 633 650 644 653 653 625 636 664 669 650 664 617 672 656 653 661 678 669 642 672 678 681 672 639 653 681 656 672 681 683 636 686 681 697 669 669 683 692 681 708 694 706 686 686 694 703 681 681 678 697 683 683 711 717 708 700 731 719 739 717 747 708 739 753 753 742 742 769 756 761 725 761 753 756 753 742 731 725 761 744 728 706 742 722 722 733 717 703 711 714 717 700 678 683 686 697 700 706 706 692 728 767 781 778 756 792 769 772 778 775 756 758 786 764 767 761 756 767 767 761 731 747 742 761 733 717 736 733 736 733 747 714 731 736 753 728 722 719 731 722 731 728 708 722 717 739 717 714 681 722 703 706 697 692 694 686 694 717 694 675 703 719 703 694 711 717 703 717 708 717 722 728 714 725 719 728 744 744 747 736 792 756 772 764 797 775 803 822 781 767 786 786 797 764 775 767 783 803 808 783 767 806 775 772 761 772 742 753 778 747 739 733
122 1024 0.0000 742 719 711 731 736 733 736 756 739 733 756 764 739 744 764 769 761 756 758 758 772 769 803 769 767 786 786 775 753 783 753 767 786 769 767 792 850 817 797 803 803 808 786 783 781 769 792 750 753 733 753 742 731 750 772 761 764 789 767 783 753 769 783 792 783 758 761 764 775 753 739 753 758 758 747 747 736 736 750 758 725 728 764 739 744 756 761 739 764 767 742 761 728 758 733 739 744 789 767 758 781 742 764 736 767 739 731 739 744 731 742 778 739 772 783 800 783 783 808 792 808 797 775 781 753 786 747 725 747 750 736 714 744 739 731 722 744 714 731 736 742 731 719 722 728 719 714 714 728 744 750 772 778 769 775 817 786 800 814 786 797 808 794 764 778 803 781 806 792 817 792 781 814 808 767 781 792 756 750 786 744 728 750 753 722 728 742 731 736 728 744 722 725 733 750 725 711 719 744 736 722 722 736 731 739 756 731 736 744 764 719 733 722 722 728 739 750 725 733 728 744 725 717 700 714 706 694 706 711 689 686 694 692 686 681 689 675 664 686 689 683 678 686 703 700 711 703 722 703 719 733 756 731 731 722 750
122 1536 0.0000 758 758 769 767 794 769 747 783 792 808 806 833 828 839 856 794 781 797 778 750 733 758 736 750 750 739 736 728 750 758 744 725 761 761 761 789 792 769 761 781 761 756 747 747 739 756 758 747 744 739 758 739 750 744 750 758 783 800 794 775 797 814 792 758 800 789 794 797 797 800 792 794 794 786 778 778 789 781 803 814 806 864 825 794 789 811 811 817 831 783 772 847 850 850 803 808 797 781 786 783 789 783 794 794 756 789 778 794 781 789 778 772 772 753 750 728 728 728 733 733 725 708 711 722 714 708 700 714 717 711 697 733 711 722 714 758 719 747 725 756 744 756 753 733 753 733 758 744 750 739 733 744 739 772 742 747 744 769 750 742 781 767 761 783 811 786 781 833 797 817 811 825 808 808 842 819 828 833 789 775 761 769 753 758 783 764 733 750 753 744 736 728 717 725 736 736 711 731 731 753 736 742 747 764 758 775 783 775 747 742 764 756 733 744 747 733 761 769 731 764 781 786 797 783 781 739 758 756 750 731 731 742 731 722 717 742 717 714 722 747 719 725 725 747 731 722 725 711 725 731 742 714 733 731 750 719
122 2048 0.0000 744 742 753 736 750 742 717 739 739 742 706 719 714 733 722 714 706 719 728 719 733 736 731 717 753 722 722 706 728 706 708 717 736 703 719 722 717 722 708 711 700 694 711 708 708 708 706 733 744 736 722 742 744 756 803 781 767 786 806 764 792 772 786 786 792 794 761 769 767 789 772 753 792 789 800 781 772 792 811 878 850 836 861 800 808 822 800 781 781 803 806 822 819 819 822 814 803 781 761 789 758 775 758 756 725 739 753 728 722 717 753 728 739 706 719 728 733 736 728 736 744 756 728 728 706 736 714 706 728 731 711 703 722 714 703 692 706 683 681 692 692 675 675 669 694 678 689 661 681 681 681 681 694 697 703 708 742 717 714 719 733 706 706 725 722 706 711 714 706 708 694 706 675 694 686 700 683 678 681 706 686 689 653 711 686 692 692 706 689 689 692 714 683 700 683 706 678 683 697 703 694 700 697 725 714 711 692 703 700 692 706 703 681 681 703 700 689 672 689 692 675 689 700 686 678 694 697 700 697 683 703 700 711 722 733 733 717 722 750 719 717 697 719 694 694 706 714 686 706 719 722 725 714 725 714 714
123 256 0.0039 1181 1011 997 1022 992 1156 1461 1339 1336 1269 1272 1331 1231 1225 1267 1158 1275 1306 1178 1281 1269 1169 1314 1283 1167 1200 1083 989 1028 1022 1078 1503 1364 1342 1369 1225 1347 1306 1189 1250 1272 1175 1122 1244 1192 1111 1186 1083 1178 1258 1186 1261 1258 1153 1219 1125 1183 1256 1161 1161 1175 1008 986 1017 1000 1061 1333 1325 1219 1397 1258 1294 1272 1150 1239 1231 1131 1256 1236 1064 1192 1222 1114 1072 1108 975 992 1014 1008 1106 1292 1253 1275 1342 1203 522 739 1114 1158 1139 1197 1100 1114 1194 1142 1133 1189 1008 1014 1014 983 1044 1233 1256 1167 1217 1164 1194 1028 1011 1017 956 925 975 1086 1053 1025 1114 1186 1353 1264 1336 1286 1228 1311 1219 1169 1242 1136 1031 1008 958 972 1025 1153 1156 1247 1250 1158 1197 1150 1044 1033 986 967 969 956 961 1042 1314 1328 1392 1314 1225 1314 1403 1197 1319 1353 1167 1250 1272 1144 1131 1042 1036 1028 1036 1142 1372 1339 1347 1264 1244 1308 1272 1203 1289 1161 1172 1228 1128 1181 1222 1133 1094 1003 992 1006 961 1011 1117 1169 1461 1328 1214 1089 1044 1017 975 953 922 972 953 942 983 1036 1058 1103 1044 1081 1167 1272 1294 1394 1261 1292 1375 1228 1167 1211 1058 1022 1044 1039 1281 1514 1439 1436 1314 1319 1383 1233 1269 1189 1164 1253 1150 1019 1039 1083 1225 1444 1306 1383 1258
123 768 0.0000 1200 1186 1133 1267 1231 1172 1297 1172 1119 1231 1186 1125 1272 1258 1147 1308 1311 1203 1283 1294 1172 1308 1258 1122 1211 1311 1161 1139 1228 1169 1128 1272 1247 1117 1269 1211 1108 1136 1169 1069 1064 1169 1175 1089 1242 1272 1153 1275 1297 1164 1283 1308 1136 1264 1269 1100 1169 1242 1128 1233 1311 1147 1194 1228 1228 1161 1275 1250 1158 1272 1272 1119 1172 1189 1114 1139 1206 1164 1086 1136 1161 1094 1239 1325 1236 1250 1250 1131 1222 1222 1147 1128 1181 1186 1119 1244 1203 1150 1281 1217 1119 1189 1203 1164 1278 1297 1175 1189 1147 969 1011 964 900 942 936 1081 1108 1433 1369 1289 1372 1350 1303 1358 1236 1236 1233 1103 1164 1189 1111 1175 1172 1108 1303 1189 1147 1275 1328 1178 1378 1317 1217 1272 1258 1131 1342 1294 1161 1294 1189 1119 1250 1206 1078 1272 1236 1039 1000 992 975 978 1108 1150 1492 1369 1356 1369 1292 1319 1264 1158 1231 1200 1125 1292 1181 1061 1119 1261 1136 1275 1419 1247 1203 1297 1175 1186 1189 1058 1144 1361 1278 1208 1294 1206 1128 1200 1261 1128 1317 1175 1203 1294 1186 1208 1236 1158 1075 1175 1258 1161 1228 1256 1142 1150 1178 1139 1081 1167 1164 1061 1203 1214 1111 1192 1264 1103 1169 1069 969 981 983 956 1183 1447 1350 1378 1325 1228 1331 1175 1153 1211 1292 1125 1283 1253 1128 1217 1242 1089 1144 1197 1133 1136
124 1024 0.0195 1131 1197 1172 1178 1175 1189 1189 1206 1161 1189 1206 1186 1153 1206 1136 1231 1142 1156 1144 1156 1131 1161 1094 1156 1128 1158 1072 1106 1133 1178 1133 1164 1144 1175 1175 1169 1142 1203 1117 1189 1125 711 1317 1206 1225 1164 1167 1164 1181 1153 1147 1125 1183 1156 1211 1128 1178 1150 1194 1106 1172 1167 1175 1181 1158 1111 1197 1111 1183 1119 1122 1139 1122 1156 1106 1147 1147 1167 1142 1142 1131 1169 1156 1167 1156 1200 1144 1206 1139 1158 1142 1178 1197 1206 1175 1197 1178 1189 1153 1189 1111 1197 1156 1178 1186 1206 1189 1167 1136 1183 1200 1139 1158 1167 1150 1136 1150 1136 1153 1136 1153 1128 1122 1117 1097 1094 1017 1000 967 1008 1036 1006 1011 1031 1039 1058 1064 1044 1111 1075 1067 1078 1089 1081 1117 1108 1156 1172 1122 1203 1122 1156 1081 1097 1072 1083 1083 1097 1053 1108 1058 1092 1114 1053 1139 1067 1156 1067 1114 1111 1078 1106 1089 1075 1075 1069 1097 1114 1092 1139 1094 1106 1144 1100 1158 1061 1122 1056 1092 1094 1081 1097 1072 1083 1069 1067 1064 1058 1036 1039 1042 1044 1067 1053 1058 1106 783 1378 1036 644 1433 1042 825 1364 1025 958 1178 1089 1028 1058 1042 1069 1061 1069 1061 1094 1064 1103 1058 1044 1022 1075 1047 1092 1025 1058 1067 1064 1064 1056 1017 1067 997 1072 1011 1067 1061 1072 1089 1058 1064 1039 1061 1069 1067 1050
202 0 0.0156 1094 1147 1169 1122 1069 1089 1139 1172 1158 1094 1108 1114 1147 1117 1086 1089 1092 1156 1206 1167 1100 1119 1158 1200 658 1539 1083 1086 1131 1133 1083 1092 1100 1167 1192 1181 1122 1119 1167 1203 1150 1072 1064 1117 1161 1094 1094 1081 1117 1164 1181 1181 1108 1103 1181 1189 1167 1111 1114 1183 1181 1139 1092 1083 1122 1172 1158 1147 1094 1108 1172 1197 1153 1106 1103 1222 1186 1100 1067 1067 1083 1117 1103 1103 1072 1081 1147 1169 1144 1069 1064 1136 1153 1131 1114 1089 1147 1183 1158 1128 1086 1081 1136 1150 1147 1089 1089 1142 1189 1147 1097 1094 1136 1197 1167 1139 1114 1122 1153 1178 1133 1097 1086 1131 1197 1147 1083 1089 1142 1214 1186 1131 1147 1164 1189 1175 1108 1092 1086 1139 1178 1122 1078 1106 1172 1206 1161 1086 1111 1133 1169 1158 1117 1111 1131 1167 1183 1125 1067 1067 1131 1192 1131 1078 1103 1181 1194 1158 1108 1106 1144 1167 1164 1136 1075 1106 1161 1194 1150 1094 1114 1217 1208 1172 1119 1136 1189 1167 1167 1081 1067 1108 1181 1169 1114 1064 1103 1167 1153 1122 625 1514 1142 1153 1136 1103 1083 1128 1181 1181 1128 1092 1092 1197 1172 650 1500 1058 1131 1103 1103 1100 1075 1114 1178 1178 1147 1092 1069 1150 1192 1139 1100 1081 644 1594 1117 1053 1050 1078 1131 1133 1131 1108 1086 1133 1194 1172 1092 1108 1144 1211 1175 1111 1117 1133
202 768 0.0039 1008 1058 1119 1131 1050 1031 1044 1086 1153 1089 1072 483 1244 1108 1100 1100 1056 1025 1050 1125 1142 1097 1044 1031 1092 1128 1086 1022 1053 1039 1128 1128 1103 1072 1056 1078 1147 1142 1081 1064 1094 1136 1153 1100 1069 1075 1111 1131 1111 1092 1031 1075 1103 1147 1092 1042 1067 1094 1153 1100 1061 1069 1081 1114 1136 1122 1061 1083 1100 1169 1133 1089 1050 1100 1142 1167 1097 1061 1111 1139 1144 1133 1061 1092 1097 1133 1133 1067 1047 1042 1094 1136 1081 1058 1044 1125 1131 1114 1069 1036 1081 1108 1117 1108 1072 1044 1092 1142 1136 1089 1047 1075 1194 1156 1086 1067 1086 1142 1144 1128 1108 1067 1094 1128 1144 1106 1061 1072 1156 1128 1094 1044 1028 1061 1089 1067 1056 1014 1028 1050 1108 1100 1081 1039 1033 1142 1108 1075 1036 1011 1036 1089 1042 1011 1025 989 1044 1125 1078 1094 1050 1064 1181 1153 1083 1097 1083 1167 1164 1150 1111 1103 1133 1153 1167 1142 1064 1097 1158 1189 1131 1069 1094 1161 1158 1156 1119 1097 1131 1164 1169 1128 1097 1128 1172 1189 1161 1081 1119 1178 1222 1164 1114 1164 1186 1200 1158 1136 1128 1156 1211 1186 1131 1111 1139 1219 1211 1128 1133 1189 1225 1208 1150 1150 1164 1217 1219 1164 1094 1131 1181 1197 1144 1083 1133 1203 1206 1175 1122 1150 1164 1189 1211 1131 1122 1178 1172 1214 1139 1106 1211 1236 1169 1136 1108 1183
205 512 0.0039 631 642 653 647 656 661 650 642 672 686 656 644 656 664 658 661 658 658 644 658 675 658 653 658 664 669 681 683 672 658 681 689 675 669 667 667 683 694 669 669 686 703 678 669 667 486 861 672 669 653 642 653 669 647 650 647 658 650 675 681 653 650 669 692 661 650 647 661 647 661 661 642 639 653 672 644 647 644 653 636 664 664 653 639 650 672 647 650 650 647 642 661 675 642 650 647 678 647 661 647 653 644 669 675 642 650 653 675 656 647 642 647 647 664 664 642 647 650 675 650 647 642 644 647 653 661 639 644 639 661 647 653 631 647 639 656 653 647 647 636 650 661 647 633 639 642 642 650 644 644 631 653 661 644 636 644 658 650 656 650 647 631 658 658 644 625 639 644 639 644 653 628 631 644 667 633 642 639 642 636 653 664 625 636 636 658 639 647 628 633 631 650 656 642 642 642 658 653 653 636 642 642 650 656 639 644 628 653 656 647 636 642 653 647 658 647 644 633 653 661 647 625 636 642 639 650 653 633 639 653 675 644 650 642 647 647 653 661 633 639 644 658 642 650 639 644 636 658 664 647 647 639 658 653 647 633
205 1024 0.0039 678 656 675 672 656 653 658 678 661 658 661 672 661 672 675 664 653 664 686 658 656 653 669 650 669 661 664 650 672 681 664 653 664 667 669 669 667 667 653 669 678 664 656 656 667 675 678 661 664 658 672 678 672 650 653 658 678 683 664 664 658 681 681 669 650 658 658 675 681 661 656 658 683 664 667 650 658 653 669 681 653 650 667 692 669 669 667 678 664 672 681 661 650 669 692 669 656 656 672 683 678 664 661 658 683 678 667 647 650 656 669 669 656 653 658 681 672 672 661 661 656 678 683 658 653 653 686 658 661 650 656 650 667 669 656 644 661 681 653 647 650 667 656 667 658 661 639 664 669 647 628 647 656 650 656 658 639 636 647 669 642 642 633 653 633 650 650 636 631 631 656 644 647 619 633 631 650 644 639 639 633 650 656 644 625 625 642 642 644 636 636 628 647 658 639 631 642 650 642 642 653 631 633 633 650 625 628 633 622 622 631 644 633 633 628 639 658 642 622 636 647 642 639 642 644 625 642 653 642 631 653 658 647 664 667 653 647 653 561 761 672 633 650 658 656 658 642 661 658 678 656 667 661 678 661 658
205 1536 0.0000 650 653 644 664 683 664 642 667 703 675 656 661 678 689 681 672 672 678 694 689 669 675 683 686 683 697 689 681 683 717 681 683 681 692 672 697 686 686 664 692 711 697 672 692 692 706 714 683 678 708 722 683 675 686 692 686 689 683 678 669 697 689 689 669 681 681 686 689 675 658 692 700 675 658 681 686 689 700 675 692 686 711 694 694 683 697 686 706 706 700 672 714 708 706 683 686 692 703 717 694 675 694 717 697 689 683 700 697 714 700 694 689 725 708 708 689 708 703 714 711 700 683 722 717 697 686 692 703 703 711 689 683 708 722 694 672 694 700 703 700 689 692 686 714 697 692 689 700 683 703 717 700 683 706 717 706 689 689 692 703 717 700 681 708 722 700 686 703 706 714 717 697 694 703 728 706 689 694 703 706 714 706 700 689 742 725 717 692 711 706 719 706 697 692 728 719 714 700 711 708 725 722 711 697 719 725 703 697 694 683 706 708 700 689 708 719 711 686 703 694 714 725 697 692 717 719 706 672 697 703 711 725 700 706 708 747 708 706 697 719 708 728 700 700 694 731 708 706 703 711 714 728 725 717 697 731
205 2304 0.0195 722 742 736 733 733 750 742 753 736 742 728 764 731 722 717 731 731 747 719 719 733 750 739 711 728 731 742 744 731 714 747 742 736 719 736 739 747 750 742 731 761 747 747 733 753 733 747 733 736 722 758 739 714 731 728 747 747 725 725 739 758 733 719 725 736 736 747 733 719 750 756 744 725 744 728 750 747 731 722 744 731 728 725 731 731 733 736 733 728 747 728 728 717 739 719 736 717 722 719 744 725 711 725 733 736 739 725 722 728 753 733 717 725 728 736 753 728 725 747 761 753 728 736 731 742 742 731 711 747 728 728 719 731 736 736 742 736 742 767 742 731 461 1014 739 750 722 728 733 761 736 722 742 733 761 747 739 725 753 747 731 717 728 733 742 736 739 731 764 739 742 736 753 747 756 731 728 733 756 739 717 742 731 747 381 1092 722 431 1042 728 711 714 717 725 489 953 714 736 742 728 711 722 719 742 739 725 708 739 742 731 717 719 722 733 739 731 711 742 736 736 722 719 719 742 389 1072 708 742 722 722 711 731 731 731 739 736 739 750 742 728 731 747 733 744 725 733 736 756 742 728 742 736 756 758 742 722 753
207 512 0.0000 778 747 764 753 781 794 797 764 781 778 753 736 806 825 792 764 761 756 764 767 794 811 783 797 767 756 728 800 806 803 789 775 756 778 750 786 806 808 775 792 775 761 750 819 817 800 769 769 769 758 789 817 803 797 811 781 756 758 803 836 825 789 764 792 772 789 819 822 800 811 792 772 761 828 839 825 786 786 783 775 817 839 828 833 817 786 778 783 822 856 822 806 800 811 769 817 833 828 825 811 781 778 783 847 842 808 806 797 794 781 819 817 828 825 797 772 775 781 842 850 814 794 808 797 786 819 836 825 822 803 794 758 831 853 839 811 819 794 806 797 836 839 861 817 794 800 786 853 881 839 828 825 825 797 828 856 853 839 828 819 781 853 872 861 833 836 817 828 817 858 875 864 836 817 814 817 886 872 856 831 833 825 806 853 878 853 847 831 808 811 889 878 842 842 819 842 822 864 883 894 842 828 817 803 878 881 856 833 839 836 803 842 883 867 861 839 817 808 872 878 861 850 833 853 817 858 892 900 864 839 833 822 869 897 886 842 861 850 808 861 894 894 886 844 822 839 881 894 881 864 858 864 828 881 919 906
