# aauwss ecg epoch, one sample per line
# source AAUWSS (Aalborg University Wearable Sleep Study) v1.1, Zenodo 10.5281/zenodo.16919071
# licence CC-BY-4.0 - Djanian S, Nielsen T D, Nielsen S H, Bruun A (2025)
# subject 11
# fs_hz 200.0
# samples 6000
# scale 0.1  (value = count * scale, arbitrary published units, NOT mV)
# source_row 434 of 869
# stage_label N2
# epoch 435.0
-204858
-204986
-204738
-204573
-204747
-204849
-204435
-203911
-204012
-204233
-204049
-203736
-203479
-203663
-203773
-203709
-204067
-204242
-204187
-204462
-204931
-205216
-205051
-204876
-205143
-205391
-205189
-205032
-205262
-205474
-205308
-205097
-205363
-205565
-205262
-205069
-205308
-205428
-205207
-205078
-205235
-205253
-204885
-204573
-204839
-205253
-204352
-202293
-199711
-195905
-191567
-188286
-185381
-188525
-199858
-206144
-205584
-204545
-203396
-203507
-204417
-204858
-204683
-204462
-204729
-204931
-204656
-204435
-204692
-204867
-204564
-204371
-204573
-204701
-204472
-204279
-204462
-204610
-204325
-204049
-204260
-204407
-204086
-203856
-204076
-204187
-203874
-203608
-203727
-203847
-203553
-203277
-203378
-203451
-203130
-202817
-202983
-203029
-202643
-202330
-202459
-202542
-202155
-201825
-201972
-202091
-201751
-201475
-201604
-201733
-201475
-201246
-201595
-201926
-201843
-201926
-202431
-202900
-202928
-203047
-203589
-203957
-203893
-203893
-204251
-204536
-204361
-204251
-204564
-204720
-204490
-204343
-204573
-204757
-204518
-204343
-204591
-204793
-204536
-204334
-204610
-204757
-204518
-204380
-204610
-204830
-204591
-204407
-204665
-204849
-204628
-204435
-204656
-204931
-204692
-204481
-204803
-204986
-204729
-204582
-204830
-205014
-204766
-204619
-204885
-205069
-204812
-204637
-204904
-205078
-204821
-204637
-204904
-205042
-204610
-204214
-204196
-204214
-204012
-203920
-203975
-203792
-203626
-203792
-204141
-204279
-204086
-204159
-204784
-205244
-205087
-204913
-205198
-205409
-205189
-205042
-205317
-205547
-205299
-205143
-205409
-205593
-205391
-205198
-205437
-205611
-205308
-205133
-205363
-205428
-205042
-204692
-204821
-205179
-204398
-202431
-200161
-196604
-191981
-188451
-185483
-187358
-198323
-206236
-205988
-204573
-203461
-203461
-204417
-204894
-204683
-204472
-204757
-204950
-204692
-204527
-204738
-204867
-204582
-204371
-204600
-204766
-204481
-204260
-204481
-204610
-204297
-204067
-204288
-204435
-204113
-203865
-204040
-204141
-203837
-203608
-203773
-203865
-203534
-203249
-203387
-203479
-203121
-202817
-202946
-203019
-202615
-202293
-202422
-202459
-202073
-201769
-201926
-201990
-201650
-201365
-201530
-201650
-201356
-201200
-201512
-201871
-201871
-201935
-202477
-202937
-203001
-203167
-203654
-204067
-204030
-204040
-204435
-204692
-204508
-204398
-204720
-204894
-204656
-204527
-204766
-204931
-204683
-204518
-204747
-204894
-204683
-204518
-204720
-204885
-204646
-204453
-204729
-204922
-204665
-204518
-204784
-204959
-204738
-204554
-204793
-205005
-204738
-204610
-204885
-205032
-204821
-204665
-204922
-205124
-204894
-204729
-205005
-205198
-204968
-204803
-205051
-205244
-205023
-204858
-205124
-205290
-204986
-204747
-204894
-204839
-204251
-203865
-204132
-204417
-204122
-203553
-203690
-204260
-204178
-203975
-204242
-204508
-204656
-204830
-205225
-205437
-205161
-205014
-205308
-205529
-205308
-205133
-205400
-205593
-205372
-205207
-205437
-205621
-205372
-205189
-205455
-205602
-205299
-205051
-205161
-205170
-204793
-204830
-204775
-203332
-200795
-197238
-193075
-189747
-186264
-186374
-196641
-206154
-206319
-204417
-203644
-203819
-204279
-204472
-204821
-204959
-204720
-204564
-204793
-204959
-204692
-204481
-204701
-204839
-204582
-204361
-204573
-204720
-204398
-204196
-204398
-204518
-204233
-203985
-204141
-204242
-203939
-203718
-203893
-203985
-203644
-203405
-203562
-203635
-203286
-203019
-203148
-203194
-202826
-202532
-202633
-202670
-202303
-202008
-202137
-202155
-201806
-201549
-201678
-201742
-201383
-201154
-201383
-201540
-201337
-201337
-201788
-202192
-202247
-202348
-202891
-203350
-203378
-203479
-203948
-204279
-204168
-204113
-204426
-204646
-204472
-204315
-204564
-204757
-204518
-204334
-204573
-204775
-204518
-204306
-204536
-204701
-204481
-204297
-204518
-204692
-204462
-204306
-204564
-204729
-204490
-204343
-204610
-204775
-204545
-204389
-204665
-204867
-204628
-204472
-204701
-204894
-204683
-204508
-204766
-204950
-204701
-204573
-204830
-204996
-204766
-204600
-204849
-205014
-204793
-204646
-204876
-205042
-204784
-204591
-204793
-204849
-204426
-203948
-203920
-204067
-203966
-203755
-203589
-203580
-203718
-203755
-203994
-204205
-204058
-204242
-204821
-205152
-204977
-204830
-205097
-205281
-205087
-204959
-205235
-205418
-205152
-205005
-205281
-205455
-205207
-205042
-205290
-205464
-205179
-204931
-205097
-205152
-204738
-204481
-204931
-204830
-203019
-200529
-197413
-193240
-189481
-185979
-186337
-196374
-205556
-205988
-204610
-203727
-203360
-203874
-204527
-204803
-204518
-204380
-204637
-204784
-204545
-204325
-204527
-204665
-204398
-204168
-204343
-204518
-204242
-204040
-204251
-204380
-204113
-203856
-204058
-204196
-203893
-203644
-203792
-203911
-203580
-203314
-203461
-203553
-203240
-202964
-203084
-203139
-202826
-202560
-202670
-202771
-202376
-202073
-202211
-202192
-201806
-201521
-201632
-201714
-201374
-201117
-201310
-201383
-201117
-201034
-201466
-201843
-201788
-201898
-202468
-202946
-202974
-203102
-203626
-203994
-203929
-203874
-204205
-204472
-204297
-204196
-204462
-204619
-204380
-204224
-204490
-204628
-204371
-204233
-204453
-204619
-204417
-204224
-204508
-204683
-204389
-204251
-204545
-204775
-204545
-204288
-204536
-204757
-204499
-204371
-204619
-204803
-204610
-204444
-204683
-204830
-204637
-204536
-204784
-204931
-204720
-204582
-204766
-204977
-204803
-204619
-204839
-205023
-204775
-204591
-204849
-204996
-204701
-204536
-204720
-204656
-204196
-203736
-203902
-204224
-203966
-203433
-203369
-203792
-203837
-203736
-203957
-204168
-204343
-204536
-204931
-205189
-204986
-204858
-205152
-205345
-205078
-204940
-205216
-205428
-205225
-205051
-205317
-205464
-205207
-205078
-205290
-205409
-205143
-204986
-205124
-205115
-204720
-204481
-205014
-204729
-202661
-200051
-196705
-192514
-188984
-185547
-187137
-198268
-205979
-205556
-204573
-203718
-203553
-204095
-204573
-204885
-204665
-204508
-204720
-204821
-204591
-204407
-204665
-204793
-204472
-204288
-204564
-204701
-204407
-204178
-204315
-204453
-204196
-203948
-204178
-204297
-203966
-203718
-203883
-204012
-203690
-203433
-203626
-203736
-203332
-203038
-203194
-203240
-202909
-202615
-202689
-202744
-202431
-202155
-202266
-202312
-201953
-201733
-201843
-201843
-201540
-201282
-201466
-201622
-201328
-201246
-201632
-202018
-202054
-202192
-202735
-203157
-203240
-203314
-203801
-204233
-204086
-204012
-204417
-204665
-204417
-204297
-204545
-204738
-204582
-204398
-204628
-204821
-204545
-204435
-204720
-204830
-204637
-204426
-204610
-204904
-204656
-204499
-204775
-204867
-204628
-204490
-204757
-204977
-204729
-204573
-204867
-205051
-204803
-204637
-204885
-205078
-204821
-204674
-204977
-205170
-204913
-204692
-204968
-205170
-204867
-204711
-205005
-205179
-204922
-204711
-204885
-204950
-204499
-204067
-204168
-204343
-204178
-203828
-203644
-203801
-203948
-203939
-204141
-204297
-204260
-204481
-205051
-205391
-205124
-204959
-205290
-205483
-205271
-205152
-205382
-205602
-205372
-205170
-205455
-205639
-205372
-205198
-205437
-205584
-205299
-205060
-205253
-205336
-204968
-204610
-204894
-205253
-204076
-201898
-199352
-195391
-191034
-187725
-184986
-189407
-201190
-206420
-205391
-204398
-203378
-203599
-204490
-204876
-204738
-204527
-204729
-204968
-204720
-204481
-204747
-204904
-204610
-204407
-204628
-204757
-204453
-204242
-204472
-204600
-204306
-204104
-204306
-204444
-204104
-203828
-204021
-204122
-203801
-203525
-203718
-203837
-203451
-203203
-203387
-203433
-203102
-202780
-202891
-202964
-202551
-202247
-202404
-202450
-202100
-201815
-201953
-202036
-201659
-201411
-201613
-201705
-201457
-201356
-201714
-202054
-202045
-202128
-202661
-203157
-203185
-203295
-203792
-204178
-204122
-204086
-204472
-204720
-204508
-204398
-204665
-204876
-204656
-204472
-204729
-204885
-204637
-204481
-204692
-204849
-204619
-204472
-204692
-204858
-204656
-204472
-204729
-204913
-204683
-204527
-204766
-204950
-204729
-204545
-204803
-205023
-204793
-204628
-204894
-205097
-204849
-204683
-204968
-205133
-204904
-204775
-205032
-205216
-204950
-204766
-205042
-205253
-205023
-204849
-205097
-205281
-205042
-204849
-205051
-205152
-204738
-204343
-204297
-204352
-204233
-204067
-204030
-203920
-203874
-204030
-204315
-204481
-204269
-204343
-204996
-205409
-205216
-205069
-205345
-205538
-205363
-205216
-205501
-205694
-205464
-205299
-205538
-205740
-205501
-205345
-205575
-205722
-205474
-205225
-205418
-205529
-205124
-204775
-205106
-205336
-203948
-201733
-199205
-195225
-190878
-187449
-185326
-191301
-202909
-206852
-205372
-204288
-203497
-203883
-204747
-205069
-204858
-204683
-204940
-205106
-204849
-204674
-204885
-205051
-204775
-204554
-204757
-204885
-204628
-204417
-204600
-204738
-204462
-204242
-204426
-204545
-204251
-203985
-204168
-204288
-203957
-203681
-203828
-203929
-203608
-203332
-203451
-203507
-203157
-202845
-202974
-202983
-202606
-202330
-202431
-202486
-202128
-201815
-201944
-202018
-201678
-201393
-201549
-201668
-201411
-201291
-201696
-202082
-202054
-202174
-202725
-203203
-203258
-203360
-203865
-204260
-204205
-204178
-204508
-204757
-204619
-204490
-204757
-204959
-204711
-204536
-204793
-204950
-204738
-204582
-204793
-204950
-204701
-204527
-204766
-204931
-204692
-204508
-204738
-204913
-204674
-204508
-204747
-204950
-204729
-204554
-204821
-204996
-204775
-204619
-204885
-205097
-204849
-204692
-204977
-205152
-204931
-204784
-205023
-205225
-205005
-204830
-205078
-205262
-205023
-204821
-205087
-205308
-205060
-204876
-205143
-205308
-205069
-204913
-205115
-205290
-204968
-204600
-204637
-204545
-204159
-204040
-204389
-204325
-203672
-203681
-204288
-204490
-204269
-204150
-204619
-205161
-205161
-205060
-205308
-205529
-205336
-205179
-205437
-205639
-205455
-205299
-205529
-205712
-205483
-205317
-205547
-205703
-205455
-205262
-205464
-205584
-205244
-204894
-204996
-205143
-205115
-204288
-202661
-200317
-196264
-191779
-188727
-185850
-188736
-200087
-206852
-206043
-204306
-203314
-203883
-204747
-204775
-204656
-204876
-205087
-204876
-204665
-204867
-205023
-204766
-204527
-204729
-204876
-204582
-204361
-204573
-204674
-204417
-204224
-204389
-204508
-204224
-203957
-204122
-204242
-203920
-203681
-203847
-203957
-203644
-203350
-203479
-203553
-203222
-202928
-203029
-203075
-202689
-202348
-202505
-202569
-202128
-201843
-201953
-201962
-201613
-201337
-201512
-201595
-201255
-201080
-201365
-201659
-201540
-201567
-202110
-202560
-202624
-202762
-203268
-203709
-203736
-203736
-204132
-204462
-204288
-204187
-204499
-204656
-204435
-204288
-204554
-204738
-204499
-204315
-204527
-204747
-204499
-204269
-204508
-204674
-204453
-204260
-204462
-204646
-204453
-204306
-204499
-204656
-204462
-204288
-204508
-204674
-204453
-204279
-204545
-204784
-204536
-204352
-204619
-204839
-204600
-204426
-204701
-204922
-204674
-204490
-204775
-205014
-204775
-204591
-204830
-204977
-204793
-204628
-204812
-205023
-204812
-204646
-204876
-205042
-204803
-204628
-204876
-205023
-204784
-204665
-204913
-205023
-204821
-204683
-204839
-205032
-204729
-204371
-204453
-204306
-203920
-203837
-204122
-204040
-203341
-203378
-204030
-204242
-204030
-203966
-204518
-205014
-204922
-204784
-205069
-205326
-205115
-204950
-205207
-205418
-205189
-205023
-205281
-205464
-205253
-205051
-205281
-205428
-205161
-205023
-205299
-205400
-205060
-204757
-204793
-204867
-204793
-204573
-203543
-201457
-198222
-193837
-190216
-187312
-185335
-192404
-203773
-206567
-204803
-203497
-203295
-204132
-204306
-204288
-204610
-204738
-204518
-204361
-204536
-204656
-204435
-204233
-204472
-204665
-204371
-204168
-204334
-204444
-204196
-203939
-204178
-204325
-203985
-203718
-203865
-204058
-203792
-203461
-203589
-203755
-203451
-203185
-203314
-203378
-203084
-202753
-202872
-203038
-202606
-202192
-202376
-202459
-202064
-201733
-201834
-201907
-201530
-201246
-201356
-201457
-201126
-200841
-201108
-201319
-201144
-201135
-201595
-202064
-202119
-202238
-202799
-203249
-203286
-203350
-203736
-204104
-204030
-203883
-204168
-204444
-204297
-204178
-204398
-204582
-204352
-204150
-204389
-204554
-204343
-204150
-204398
-204656
-204352
-204104
-204417
-204637
-204361
-204196
-204472
-204674
-204444
-204251
-204481
-204665
-204444
-204279
-204518
-204720
-204481
-204279
-204545
-204784
-204554
-204371
-204619
-204793
-204600
-204426
-204637
-204867
-204610
-204453
-204738
-204885
-204674
-204508
-204720
-204904
-204701
-204527
-204720
-204894
-204656
-204444
-204665
-204766
-204352
-203874
-203902
-204049
-203883
-203700
-203488
-203461
-203608
-203617
-203865
-204067
-203920
-204095
-204665
-205042
-204867
-204656
-204922
-205161
-204940
-204766
-205051
-205235
-204986
-204821
-205060
-205253
-205014
-204784
-205023
-205198
-204959
-204747
-204940
-205051
-204692
-204334
-204398
-204766
-204426
-202780
-200722
-197716
-193102
-189104
-186071
-185060
-193323
-204067
-206034
-204508
-203249
-202725
-203644
-204334
-204196
-204003
-204288
-204472
-204205
-204003
-204205
-204389
-204132
-203902
-204122
-204251
-203966
-203782
-203966
-204122
-203865
-203589
-203773
-203929
-203626
-203378
-203543
-203663
-203369
-203130
-203258
-203369
-203047
-202771
-202928
-202983
-202652
-202330
-202413
-202496
-202146
-201834
-201926
-201981
-201632
-201301
-201393
-201457
-201135
-200860
-201007
-201126
-200841
-200648
-200951
-201291
-201282
-201356
-201871
-202367
-202431
-202569
-203084
-203507
-203525
-203516
-203865
-204178
-204012
-203902
-204224
-204426
-204214
-204030
-204251
-204462
-204242
-204040
-204269
-204435
-204196
-204021
-204260
-204426
-204178
-203975
-204205
-204417
-204168
-203966
-204242
-204453
-204205
-203994
-204251
-204444
-204205
-204058
-204288
-204490
-204306
-204086
-204361
-204619
-204380
-204205
-204444
-204665
-204462
-204242
-204518
-204711
-204462
-204315
-204545
-204747
-204508
-204325
-204573
-204766
-204527
-204315
-204582
-204793
-204545
-204371
-204619
-204793
-204582
-204407
-204628
-204812
-204582
-204398
-204637
-204821
-204564
-204389
-204591
-204766
-204490
-204104
-204132
-204049
-203599
-203488
-203828
-203801
-203185
-203139
-203755
-203994
-203755
-203635
-204113
-204656
-204619
-204518
-204784
-204986
-204775
-204637
-204904
-205115
-204894
-204711
-204959
-205179
-204950
-204766
-204996
-205207
-204931
-204720
-204940
-205060
-204757
-204417
-204481
-204619
-204564
-203810
-202238
-200014
-196181
-191613
-188497
-185731
-187394
-198176
-206154
-205639
-203736
-202790
-203258
-204150
-204242
-204122
-204334
-204545
-204315
-204113
-204325
-204518
-204242
-204012
-204233
-204361
-204104
-203893
-204067
-204214
-203920
-203700
-203902
-204058
-203782
-203525
-203663
-203773
-203488
-203212
-203369
-203488
-203167
-202882
-203019
-203148
-202808
-202486
-202606
-202661
-202284
-201962
-202064
-202110
-201742
-201393
-201475
-201540
-201190
-200905
-200997
-201080
-200786
-200565
-200795
-201016
-200924
-200961
-201420
-201907
-201990
-202110
-202643
-203139
-203167
-203185
-203626
-203966
-203847
-203755
-204040
-204288
-204113
-203920
-204178
-204380
-204132
-203957
-204196
-204380
-204168
-203966
-204196
-204407
-204168
-203957
-204205
-204398
-204178
-203994
-204187
-204398
-204178
-203957
-204214
-204407
-204178
-204030
-204269
-204462
-204260
-204076
-204334
-204573
-204380
-204205
-204444
-204646
-204380
-204224
-204499
-204692
-204472
-204288
-204554
-204784
-204545
-204361
-204610
-204784
-204573
-204407
-204628
-204830
-204591
-204407
-204656
-204839
-204619
-204426
-204656
-204849
-204619
-204435
-204656
-204839
-204591
-204398
-204656
-204830
-204582
-204371
-204508
-204536
-204067
-203580
-203700
-204012
-203837
-203268
-203212
-203755
-203819
-203617
-203865
-204178
-204251
-204380
-204803
-205060
-204839
-204665
-204959
-205179
-204968
-204803
-205023
-205253
-205042
-204858
-205097
-205290
-205051
-204858
-205097
-205253
-204986
-204747
-204849
-204913
-204527
-204352
-204738
-203975
-201714
-198865
-195097
-191098
-187642
-184959
-190124
-201898
-206485
-204821
-203700
-203268
-203543
-204003
-204407
-204619
-204371
-204196
-204481
-204665
-204389
-204150
-204343
-204536
-204269
-204030
-204214
-204371
-204086
-203828
-204021
-204178
-203939
-203700
-203801
-203939
-203690
-203405
-203571
-203681
-203341
-203093
-203249
-203314
-202946
-202670
-202808
-202900
-202551
-202229
-202303
-202385
-202036
-201678
-201788
-201806
-201429
-201181
-201301
-201337
-201007
-200749
-200887
-201016
-200758
-200657
-201062
-201429
-201494
-201622
-202119
-202661
-202735
-202826
-203369
-203746
-203672
-203709
-204040
-204288
-204159
-204030
-204315
-204518
-204269
-204104
-204371
-204545
-204315
-204122
-204352
-204554
-204325
-204132
-204325
-204536
-204325
-204113
-204361
-204573
-204352
-204187
-204398
-204582
-204352
-204168
-204462
-204665
-204426
-204279
-204545
-204775
-204527
-204325
-204573
-204803
-204637
-204417
-204646
-204894
-204674
-204499
-204747
-204977
-204747
-204508
-204784
-205014
-204720
-204518
-204793
-204996
-204766
-204573
-204784
-204996
-204784
-204582
-204858
-205032
-204738
-204527
-204692
-204738
-204242
-203755
-203957
-204233
-203975
-203451
-203378
-203902
-203966
-203755
-204049
-204343
-204472
-204637
-204977
-205216
-205042
-204894
-205161
-205418
-205216
-205023
-205308
-205510
-205253
-205069
-205336
-205547
-205281
-205032
-205281
-205492
-205235
-204986
-205152
-205161
-204784
-204554
-204986
-205014
-203231
-200538
-197284
-193148
-189527
-186144
-186117
-195933
-205354
-205860
-204628
-203847
-203433
-203911
-204536
-204876
-204665
-204481
-204720
-204931
-204628
-204444
-204738
-204858
-204600
-204398
-204582
-204729
-204481
-204260
-204453
-204610
-204297
-204058
-204260
-204407
-204076
-203792
-204021
-204141
-203819
-203599
-203755
-203810
-203479
-203240
-203360
-203451
-203102
-202744
-202882
-202974
-202569
-202247
-202348
-202385
-202091
-201788
-201889
-201962
-201604
-201347
-201512
-201558
-201337
-201236
-201567
-201972
-201935
-202027
-202624
-203139
-203194
-203277
-203792
-204196
-204205
-204233
-204582
-204885
-204701
-204573
-204830
-204996
-204849
-204674
-204894
-205115
-204839
-204656
-204922
-205087
-204867
-204711
-204913
-205133
-204931
-204701
-204931
-205124
-204904
-204701
-204922
-205133
-204913
-204747
-204977
-205189
-205014
-204839
-205069
-205290
-205069
-204876
-205115
-205299
-205069
-204931
-205207
-205418
-205170
-204986
-205225
-205409
-205189
-204996
-205235
-205437
-205161
-204940
-205133
-205143
-204646
-204205
-204398
-204720
-204435
-203792
-203819
-204361
-204352
-204187
-204417
-204665
-204821
-204996
-205409
-205676
-205409
-205271
-205565
-205768
-205565
-205382
-205639
-205887
-205648
-205483
-205731
-205906
-205667
-205455
-205694
-205878
-205565
-205326
-205474
-205510
-205106
-204894
-205382
-204922
-202762
-199996
-196429
-192275
-188764
-185381
-187771
-199453
-206687
-205823
-204683
-203939
-203883
-204435
-204950
-205216
-204968
-204775
-205023
-205207
-204922
-204747
-205023
-205115
-204793
-204582
-204793
-204996
-204729
-204499
-204674
-204784
-204527
-204306
-204481
-204610
-204306
-204058
-204224
-204325
-204003
-203718
-203883
-203985
-203635
-203387
-203488
-203497
-203148
-202854
-202992
-203038
-202624
-202330
-202468
-202514
-202100
-201760
-201880
-201972
-201632
-201356
-201530
-201659
-201457
-201356
-201760
-202192
-202192
-202321
-202909
-203387
-203415
-203525
-204058
-204444
-204352
-204306
-204656
-204922
-204720
-204610
-204894
-205060
-204821
-204656
-204904
-205087
-204849
-204674
-204922
-205115
-204858
-204683
-204959
-205124
-204876
-204720
-204959
-205133
-204894
-204729
-204996
-205170
-204940
-204757
-205005
-205225
-205014
-204849
-205087
-205299
-205087
-204931
-205198
-205372
-205161
-205023
-205271
-205464
-205198
-205060
-205336
-205464
-205225
-205060
-205271
-205492
-205253
-205042
-205290
-205446
-205161
-204839
-204849
-204738
-204306
-204168
-204527
-204518
-203883
-203764
-204398
-204665
-204398
-204260
-204711
-205262
-205299
-205244
-205474
-205667
-205464
-205299
-205593
-205777
-205538
-205428
-205685
-205850
-205639
-205474
-205722
-205878
-205611
-205418
-205611
-205722
-205345
-205042
-205143
-205262
-205198
-204260
-202587
-200207
-196071
-191576
-188552
-185777
-188828
-200372
-207054
-206043
-204325
-203387
-203985
-204849
-204839
-204720
-204977
-205161
-204904
-204692
-204922
-205060
-204766
-204573
-204784
-204922
-204656
-204426
-204637
-204775
-204472
-204279
-204508
-204610
-204288
-204095
-204288
-204361
-204058
-203856
-203994
-204076
-203736
-203451
-203617
-203709
-203350
-203056
-203176
-203212
-202836
-202523
-202597
-202633
-202247
-201962
-202091
-202100
-201723
-201475
-201641
-201687
-201347
-201172
-201429
-201723
-201659
-201696
-202220
-202670
-202707
-202854
-203451
-203893
-203893
-203975
-204380
-204692
-204564
-204417
-204720
-204959
-204729
-204564
-204839
-205032
-204757
-204582
-204849
-205014
-204757
-204564
-204793
-204977
-204720
-204554
-204812
-204977
-204729
-204527
-204793
-204977
-204720
-204582
-204839
-205005
-204775
-204619
-204885
-205060
-204830
-204683
-204940
-205124
-204876
-204720
-204986
-205198
-204940
-204757
-205051
-205225
-205005
-204867
-205078
-205253
-205032
-204876
-205115
-205253
-204996
-204821
-205087
-205244
-204950
-204747
-204839
-204784
-204269
-203865
-204113
-204380
-204040
-203442
-203644
-204233
-204104
-203920
-204214
-204554
-204656
-204766
-205179
-205372
-205124
-205014
-205281
-205483
-205253
-205106
-205382
-205565
-205336
-205189
-205418
-205584
-205336
-205152
-205409
-205529
-205216
-204968
-205087
-205097
-204747
-204803
-204619
-203047
-200400
-196687
-192578
-189324
-185887
-187091
-198075
-206521
-206016
-204214
-203553
-203819
-204288
-204444
-204793
-204922
-204646
-204527
-204784
-204913
-204619
-204444
-204683
-204793
-204481
-204306
-204527
-204665
-204380
-204159
-204389
-204499
-204187
-203975
-204168
-204251
-203939
-203736
-203883
-203985
-203654
-203387
-203589
-203608
-203249
-202992
-203111
-203176
-202771
-202486
-202624
-202624
-202247
-201962
-202110
-202137
-201742
-201475
-201632
-201696
-201337
-201062
-201264
-201448
-201264
-201246
-201678
-202082
-202128
-202247
-202799
-203258
-203286
-203387
-203865
-204205
-204086
-204049
-204389
-204600
-204398
-204269
-204545
-204729
-204462
-204315
-204573
-204711
-204444
-204306
-204573
-204720
-204481
-204334
-204582
-204720
-204453
-204315
-204582
-204692
-204444
-204343
-204582
-204747
-204545
-204398
-204656
-204830
-204600
-204417
-204720
-204913
-204610
-204490
-204766
-204931
-204729
-204573
-204849
-205032
-204784
-204637
-204885
-205087
-204839
-204701
-204940
-205069
-204821
-204692
-204931
-205023
-204747
-204426
-204444
-204315
-203865
-203828
-204178
-204003
-203350
-203360
-203994
-204205
-203929
-203856
-204361
-204885
-204904
-204839
-205106
-205244
-205032
-204931
-205207
-205400
-205170
-205023
-205354
-205519
-205198
-205051
-205336
-205464
-205179
-205023
-205253
-205354
-205023
-204674
-204747
-204913
-204858
-204159
-202670
-200336
-196393
-191935
-188892
-185850
-187532
-198507
-206264
-205970
-204325
-203148
-203626
-204508
-204453
-204380
-204692
-204775
-204536
-204435
-204628
-204784
-204508
-204325
-204582
-204646
-204371
-204168
-204361
-204518
-204269
-204040
-204233
-204361
-204012
-203810
-204021
-204141
-203837
-203589
-203782
-203792
-203461
-203286
-203433
-203479
-203038
-202854
-202992
-202928
-202679
-202404
-202477
-202477
-202073
-201825
-201926
-201981
-201586
-201301
-201503
-201567
-201218
-200997
-201337
-201567
-201393
-201448
-201990
-202459
-202440
-202597
-203212
-203571
-203534
-203635
-204095
-204398
-204224
-204178
-204508
-204674
-204435
-204352
-204674
-204793
-204508
-204361
-204554
-204747
-204545
-204325
-204628
-204839
-204499
-204361
-204683
-204803
-204499
-204343
-204720
-204867
-204573
-204453
-204674
-204894
-204683
-204481
-204757
-204959
-204747
-204591
-204858
-205060
-204757
-204610
-204904
-205060
-204885
-204757
-204968
-205078
-204849
-204775
-204996
-205087
-204830
-204720
-204977
-205060
-204656
-204251
-204260
-204352
-204178
-204012
-203911
-203727
-203736
-203948
-204196
-204269
-204150
-204380
-204986
-205336
-205152
-205078
-205363
-205474
-205262
-205143
-205446
-205667
-205372
-205235
-205501
-205593
-205391
-205281
-205464
-205639
-205372
-205179
-205354
-205391
-205042
-204692
-204876
-205262
-204711
-203084
-200887
-197459
-192918
-189407
-186392
-185951
-195161
-205023
-206200
-204986
-203727
-203295
-204325
-204793
-204665
-204600
-204821
-205005
-204720
-204545
-204849
-204931
-204610
-204472
-204720
-204821
-204508
-204352
-204573
-204619
-204288
-204122
-204361
-204435
-204122
-203911
-204095
-204214
-203856
-203626
-203865
-203939
-203580
-203332
-203470
-203507
-203167
-202918
-203047
-203038
-202633
-202394
-202523
-202542
-202146
-201861
-202027
-202064
-201687
-201457
-201632
-201687
-201356
-201218
-201586
-201834
-201760
-201907
-202394
-202845
-202909
-203001
-203571
-203939
-203856
-203948
-204352
-204600
-204417
-204325
-204646
-204849
-204582
-204417
-204738
-204894
-204637
-204508
-204738
-204885
-204610
-204453
-204729
-204858
-204600
-204472
-204729
-204839
-204564
-204490
-204757
-204885
-204628
-204499
-204812
-204940
-204674
-204564
-204849
-204986
-204720
-204628
-204913
-205051
-204784
-204674
-204986
-205133
-204876
-204747
-205023
-205170
-204922
-204803
-205042
-205133
-204867
-204665
-204757
-204656
-204122
-203874
-204269
-204426
-203792
-203424
-203994
-204398
-204141
-204030
-204361
-204821
-204894
-204959
-205317
-205428
-205170
-205069
-205391
-205547
-205290
-205198
-205483
-205630
-205372
-205271
-205547
-205657
-205409
-205244
-205474
-205593
-205244
-205014
-205143
-205115
-204867
-204839
-204205
-202330
-199343
-195225
-191255
-188102
-184959
-189021
-201347
-207137
-205372
-203856
-203488
-204076
-204444
-204545
-204904
-205014
-204720
-204600
-204876
-204996
-204701
-204536
-204775
-204876
-204564
-204407
-204646
-204720
-204417
-204279
-204508
-204554
-204242
-204076
-204306
-204361
-204003
-203837
-204049
-204058
-203709
-203497
-203672
-203709
-203341
-203084
-203222
-203240
-202836
-202569
-202716
-202670
-202247
-201990
-202128
-202155
-201760
-201512
-201678
-201705
-201365
-201172
-201393
-201604
-201494
-201558
-202073
-202496
-202532
-202679
-203268
-203700
-203672
-203801
-204315
-204610
-204435
-204389
-204738
-204904
-204656
-204554
-204830
-204986
-204692
-204536
-204849
-204977
-204674
-204545
-204821
-204950
-204665
-204518
-204784
-204940
-204674
-204536
-204849
-204977
-204674
-204573
-204858
-204968
-204701
-204591
-204867
-205023
-204784
-204646
-204922
-205069
-204803
-204701
-205005
-205143
-204885
-204766
-205042
-205198
-204931
-204821
-205124
-205244
-204959
-204858
-205133
-205281
-205023
-204876
-205161
-205308
-205051
-204904
-205161
-205290
-205014
-204858
-205087
-205170
-204757
-204462
-204453
-204334
-204086
-204067
-204159
-203847
-203626
-203911
-204251
-204371
-204168
-204224
-204867
-205271
-205124
-204996
-205262
-205455
-205225
-205115
-205400
-205575
-205326
-205225
-205510
-205657
-205372
-205216
-205501
-205611
-205326
-205179
-205391
-205418
-205014
-204738
-204913
-205225
-204619
-202836
-200777
-197569
-192881
-189196
-186291
-186962
-196825
-205795
-206255
-204646
-203442
-203360
-204361
-204876
-204711
-204554
-204830
-204977
-204711
-204573
-204812
-204904
-204600
-204435
-204683
-204757
-204453
-204315
-204564
-204628
-204288
-204141
-204380
-204453
-204132
-203920
-204132
-204205
-203837
-203635
-203819
-203865
-203507
-203258
-203424
-203451
-203056
-202826
-202946
-202937
-202569
-202275
-202367
-202367
-201981
-201714
-201852
-201871
-201457
-201236
-201439
-201494
-201172
-201043
-201402
-201650
-201595
-201742
-202275
-202698
-202762
-202946
-203507
-203883
-203819
-203902
-204343
-204564
-204380
-204334
-204646
-204812
-204554
-204462
-204738
-204867
-204619
-204508
-204784
-204894
-204610
-204462
-204747
-204867
-204591
-204490
-204747
-204867
-204637
-204527
-204766
-204894
-204646
-204545
-204849
-204986
-204729
-204637
-204940
-205087
-204858
-204738
-204996
-205161
-204922
-204821
-205124
-205262
-204977
-204894
-205179
-205308
-205051
-204931
-205225
-205345
-205087
-204959
-205225
-205382
-205097
-204968
-205262
-205354
-205069
-204977
-205253
-205382
-205115
-204986
-205235
-205336
-205032
-204747
-204849
-204683
-204150
-204049
-204435
-204435
-203727
-203617
-204352
-204536
-204233
-204196
-204665
-205170
-205152
-205152
-205464
-205584
-205345
-205290
-205611
-205712
-205492
-205409
-205685
-205860
-205565
-205455
-205758
-205814
-205510
-205418
-205676
-205749
-205400
-205152
-205271
-205253
-205170
-204885
-203626
-201429
-197891
-193378
-190023
-186916
-186392
-195648
-205786
-206843
-204821
-203654
-203837
-204665
-204757
-204775
-205060
-205161
-204913
-204812
-205078
-205170
-204885
-204729
-204968
-205032
-204729
-204600
-204821
-204876
-204582
-204453
-204646
-204720
-204398
-204224
-204462
-204472
-204150
-203975
-204159
-204233
-203874
-203681
-203883
-203874
-203479
-203268
-203451
-203433
-203010
-202753
-202909
-202909
-202486
-202211
-202367
-202348
-201962
-201769
-201926
-201898
-201549
-201402
-201659
-201797
-201604
-201678
-202247
-202597
-202597
-202826
-203341
-203736
-203755
-203893
-204380
-204582
-204444
-204462
-204775
-204950
-204701
-204600
-204894
-205005
-204720
-204591
-204867
-204959
-204674
-204610
-204867
-204940
-204683
-204600
-204904
-205014
-204747
-204610
-204839
-204996
-204720
-204619
-204922
-205005
-204757
-204674
-204959
-205087
-204784
-204711
-205051
-205179
-204913
-204784
-205060
-205207
-204968
-204867
-205152
-205262
-204968
-204867
-205179
-205317
-205051
-204904
-205179
-205336
-205014
-204894
-205235
-205326
-205060
-204959
-205179
-205290
-205051
-204904
-205143
-205207
-204812
-204508
-204472
-204407
-204196
-204159
-204214
-203856
-203690
-204040
-204361
-204435
-204187
-204315
-205023
-205363
-205207
-205087
-205372
-205565
-205317
-205216
-205501
-205639
-205409
-205281
-205538
-205685
-205418
-205326
-205575
-205657
-205382
-205216
-205483
-205556
-205097
-204858
-204968
-205143
-204922
-203608
-201678
-198690
-194150
-190262
-187367
-185767
-192937
-203911
-206678
-205253
-203883
-203286
-204187
-204803
-204711
-204637
-204894
-204977
-204720
-204637
-204876
-204986
-204591
-204426
-204747
-204784
-204490
-204361
-204610
-204711
-204343
-204187
-204444
-204426
-204104
-204021
-204214
-204242
-203865
-203654
-203902
-203865
-203461
-203323
-203525
-203580
-203121
-202872
-203056
-203001
-202670
-202468
-202560
-202523
-202036
-201797
-202082
-201990
-201549
-201448
-201632
-201595
-201236
-201080
-201411
-201659
-201576
-201678
-202257
-202643
-202587
-202882
-203479
-203782
-203755
-203856
-204315
-204591
-204343
-204205
-204656
-204849
-204518
-204508
-204784
-204913
-204628
-204444
-204757
-204894
-204674
-204573
-204784
-204885
-204646
-204564
-204904
-205005
-204701
-204646
-204904
-205032
-204766
-204646
-204940
-205051
-204812
-204747
-205032
-205143
-204876
-204775
-205087
-205189
-204894
-204812
-205097
-205198
-204968
-204904
-205170
-205253
-204968
-204904
-205198
-205281
-204986
-204894
-205161
-205244
-204913
-204637
-204729
-204554
-204104
-204076
-204444
-204242
-203525
-203608
-204233
-204380
-204095
-204003
-204619
-205143
-205014
-205042
-205382
-205474
-205225
-205143
-205483
-205657
-205354
-205235
-205565
-205685
-205391
-205262
-205547
-205639
-205317
-205198
-205474
-205529
-205152
-204950
-205060
-204986
-204885
-204729
-203654
-201439
-197900
-193470
-190032
-186898
-185041
-193010
-204444
-206668
-204830
-203718
-203571
-204288
-204481
-204564
-204876
-204977
-204692
-204600
-204867
-204904
-204610
-204499
-204747
-204812
-204481
-204334
-204554
-204646
-204334
-204168
-204435
-204462
-204113
-204003
-204214
-204214
-203874
-203736
-203966
-203957
-203543
-203387
-203571
-203571
-203212
-202992
-203185
-203167
-202707
-202514
-202679
-202615
-202229
-201990
-202155
-202155
-201733
-201540
-201751
-201742
-201383
-201255
-201530
-201668
-201485
-201604
-202174
-202505
-202477
-202716
-203304
-203681
-203635
-203746
-204269
-204499
-204306
-204306
-204665
-204830
-204591
-204518
-204812
-204876
-204600
-204564
-204839
-204913
-204637
-204536
-204812
-204913
-204619
-204545
-204858
-204940
-204656
-204582
-204894
-204968
-204674
-204610
-204904
-205032
-204747
-204656
-204950
-205023
-204738
-204711
-205014
-205078
-204821
-204793
-205106
-205207
-204904
-204858
-205207
-205253
-204940
-204931
-205244
-205308
-205023
-204968
-205253
-205290
-204977
-204775
-204830
-204619
-204076
-204030
-204481
-204407
-203718
-203644
-204352
-204573
-204242
-204214
-204656
-205060
-205069
-205198
-205492
-205547
-205326
-205281
-205602
-205667
-205409
-205363
-205648
-205740
-205464
-205409
-205685
-205722
-205409
-205345
-205630
-205621
-205207
-205014
-205133
-205161
-205060
-204251
-202670
-200290
-196172
-191723
-188681
-185777
-188516
-200060
-207045
-205942
-204122
-203323
-203939
-204701
-204683
-204692
-204977
-205042
-204766
-204701
-204959
-204996
-204683
-204573
-204858
-204876
-204527
-204435
-204701
-204720
-204371
-204251
-204481
-204490
-204168
-204049
-204279
-204279
-203939
-203828
-204030
-203985
-203599
-203451
-203654
-203608
-203203
-203038
-203203
-203121
-202707
-202523
-202670
-202587
-202155
-201944
-202100
-202064
-201641
-201448
-201632
-201613
-201246
-201154
-201503
-201632
-201485
-201678
-202238
-202569
-202587
-202836
-203451
-203810
-203718
-203883
-204352
-204527
-204352
-204389
-204766
-204821
-204554
-204582
-204849
-204885
-204610
-204554
-204849
-204904
-204619
-204573
-204849
-204894
-204591
-204554
-204867
-204894
-204610
-204573
-204858
-204931
-204656
-204619
-204894
-204950
-204692
-204646
-204986
-205051
-204757
-204747
-205051
-205097
-204839
-204830
-205115
-205152
-204876
-204849
-205161
-205225
-204940
-204885
-205161
-205235
-204931
-204830
-205143
-205143
-204637
-204352
-204398
-204315
-204076
-204132
-204187
-203810
-203663
-204030
-204380
-204398
-204178
-204361
-205014
-205326
-205152
-205115
-205437
-205519
-205244
-205207
-205556
-205648
-205326
-205317
-205621
-205667
-205400
-205345
-205630
-205657
-205345
-205281
-205510
-205446
-205014
-204821
-205097
-205326
-204251
-202312
-200078
-196209
-191650
-188369
-185813
-189655
-200933
-206760
-205896
-204490
-203424
-203764
-204701
-205014
-204775
-204711
-205014
-205051
-204766
-204720
-204968
-205014
-204665
-204582
-204849
-204839
-204527
-204472
-204720
-204720
-204380
-204297
-204554
-204536
-204178
-204095
-204325
-204251
-203883
-203782
-203985
-203966
-203589
-203433
-203654
-203580
-203157
-203029
-203203
-203093
-202670
-202496
-202643
-202542
-202091
-201935
-202146
-202064
-201632
-201494
-201696
-201668
-201356
-201328
-201733
-201944
-201825
-202054
-202633
-202955
-202964
-203203
-203773
-204021
-203948
-204113
-204490
-204628
-204444
-204417
-204747
-204839
-204536
-204481
-204775
-204821
-204545
-204536
-204812
-204803
-204518
-204499
-204793
-204803
-204499
-204490
-204793
-204803
-204536
-204527
-204830
-204839
-204545
-204527
-204793
-204839
-204564
-204554
-204894
-204913
-204591
-204591
-204885
-204876
-204656
-204674
-204931
-205005
-204738
-204701
-205014
-205032
-204766
-204720
-205005
-205078
-204757
-204692
-204977
-204940
-204481
-204178
-204205
-204104
-203865
-203957
-203994
-203589
-203451
-203792
-204141
-204168
-203902
-204196
-204894
-205106
-204940
-204950
-205235
-205281
-205042
-205051
-205382
-205409
-205078
-205087
-205409
-205492
-205198
-205115
-205418
-205437
-205115
-205005
-205290
-205216
-204738
-204600
-204839
-205069
-204214
-202422
-200290
-196677
-192128
-188801
-185869
-187716
-198442
-206053
-205915
-204499
-203258
-203323
-204306
-204628
-204435
-204435
-204665
-204674
-204417
-204380
-204637
-204665
-204398
-204325
-204508
-204453
-204205
-204205
-204380
-204398
-204067
-203911
-204205
-204205
-203801
-203727
-204012
-203920
-203525
-203488
-203635
-203562
-203323
-203157
-203286
-203249
-202808
-202661
-202863
-202762
-202339
-202165
-202312
-202229
-201806
-201668
-201843
-201714
-201301
-201181
-201402
-201365
-200979
-200951
-201365
-201549
-201521
-201751
-202284
-202624
-202587
-202826
-203387
-203644
-203562
-203690
-204178
-204380
-204113
-204122
-204490
-204527
-204279
-204242
-204545
-204573
-204279
-204297
-204545
-204527
-204242
-204260
-204600
-204573
-204279
-204325
-204628
-204637
-204343
-204352
-204582
-204527
-204352
-204361
-204692
-204729
-204343
-204398
-204757
-204775
-204481
-204435
-204766
-204803
-204518
-204545
-204885
-204894
-204527
-204518
-204876
-204812
-204417
-204306
-204279
-204030
-203755
-203847
-204076
-203736
-203212
-203507
-204076
-204040
-203718
-203819
-204554
-204922
-204738
-204803
-205124
-205115
-204894
-204996
-205216
-205235
-205014
-205005
-205345
-205345
-205087
-205106
-205336
-205317
-204996
-204996
-205253
-205161
-204793
-204646
-204720
-204692
-204610
-204040
-202560
-199986
-195933
-191714
-188865
-185630
-187027
-198194
-206108
-205639
-204113
-203185
-203543
-204233
-204233
-204288
-204646
-204665
-204325
-204361
-204683
-204637
-204297
-204269
-204508
-204490
-204141
-204049
-204325
-204315
-203966
-203929
-204196
-204113
-203736
-203690
-203920
-203856
-203497
-203396
-203635
-203571
-203167
-203065
-203277
-203222
-202799
-202661
-202872
-202771
-202385
-202257
-202394
-202266
-201834
-201751
-201898
-201769
-201429
-201319
-201549
-201466
-201043
-201025
-201347
-201448
-201328
-201503
-202045
-202348
-202358
-202606
-203194
-203488
-203405
-203589
-204040
-204159
-203948
-204021
-204380
-204398
-204113
-204150
-204453
-204444
-204122
-204122
-204426
-204417
-204141
-204141
-204426
-204453
-204150
-204132
-204435
-204462
-204168
-204178
-204499
-204472
-204178
-204187
-204490
-204490
-204187
-204251
-204564
-204536
-204260
-204306
-204628
-204619
-204334
-204343
-204665
-204674
-204371
-204398
-204701
-204665
-204361
-204297
-204398
-204113
-203553
-203525
-203911
-203929
-203314
-203019
-203599
-203920
-203617
-203617
-203985
-204297
-204352
-204527
-204950
-204922
-204619
-204683
-205023
-205087
-204775
-204775
-205124
-205143
-204849
-204894
-205216
-205189
-204867
-204867
-205170
-205133
-204766
-204656
-204793
-204600
-204352
-204518
-203764
-201696
-198709
-194729
-190896
-187642
-184628
-189517
-201815
-206687
-204812
-203507
-203185
-203700
-204030
-204260
-204600
-204582
-204288
-204334
-204600
-204527
-204242
-204233
-204472
-204407
-204076
-204049
-204297
-204288
-203957
-203902
-204187
-204095
-203746
-203727
-203966
-203893
-203507
-203470
-203700
-203571
-203185
-203121
-203314
-203203
-202836
-202735
-202928
-202790
-202367
-202229
-202385
-202238
-201806
-201696
-201843
-201723
-201282
-201181
-201402
-201255
-200896
-200841
-201108
-201154
-200970
-201190
-201760
-202008
-202008
-202312
-202891
-203176
-203157
-203387
-203874
-204012
-203847
-203957
-204315
-204325
-204049
-204122
-204462
-204435
-204113
-204141
-204453
-204417
-204122
-204141
-204435
-204426
-204095
-204086
-204426
-204426
-204095
-204122
-204435
-204426
-204159
-204196
-204499
-204490
-204214
-204251
-204573
-204554
-204269
-204334
-204646
-204656
-204389
-204426
-204747
-204757
-204481
-204499
-204803
-204793
-204481
-204536
-204812
-204793
-204499
-204435
-204711
-204591
-204076
-203801
-203920
-203939
-203746
-203663
-203507
-203442
-203562
-203709
-204030
-204012
-203837
-204242
-204830
-204940
-204674
-204729
-205060
-205051
-204784
-204849
-205143
-205133
-204876
-204904
-205225
-205225
-204940
-204968
-205216
-205179
-204876
-204849
-205087
-204922
-204435
-204389
-204913
-204343
-202275
-199940
-196632
-192238
-188562
-185409
-187486
-198507
-206071
-205501
-204168
-203286
-203130
-203929
-204564
-204582
-204279
-204288
-204610
-204591
-204260
-204260
-204536
-204481
-204150
-204132
-204389
-204334
-204012
-204012
-204279
-204205
-203856
-203828
-204076
-203994
-203635
-203571
-203792
-203709
-203332
-203249
-203497
-203378
-202946
-202900
-203111
-202955
-202532
-202440
-202624
-202459
-202036
-201944
-202082
-201926
-201521
-201402
-201604
-201494
-201080
-200997
-201236
-201163
-200878
-201007
-201475
-201668
-201595
-201917
-202542
-202790
-202771
-203102
-203608
-203773
-203654
-203792
-204205
-204233
-203994
-204067
-204361
-204334
-204067
-204095
-204371
-204352
-204040
-204095
-204398
-204325
-204021
-204058
-204343
-204306
-203994
-204049
-204371
-204315
-204049
-204113
-204398
-204371
-204086
-204122
-204435
-204417
-204141
-204187
-204462
-204472
-204214
-204260
-204582
-204554
-204269
-204306
-204619
-204610
-204343
-204389
-204665
-204646
-204334
-204371
-204683
-204637
-204343
-204398
-204665
-204600
-204297
-204279
-204435
-204196
-203635
-203433
-203709
-203810
-203369
-202946
-203258
-203654
-203470
-203470
-203792
-203929
-204021
-204334
-204747
-204729
-204435
-204518
-204830
-204821
-204564
-204628
-204940
-204922
-204619
-204674
-204986
-204931
-204610
-204628
-204922
-204858
-204527
-204462
-204610
-204435
-204021
-204260
-204178
-202440
-199830
-196402
-192275
-188764
-185225
-186374
-197275
-205703
-205290
-203718
-203075
-203084
-203507
-203929
-204297
-204242
-203966
-204003
-204269
-204224
-203902
-203920
-204178
-204076
-203764
-203746
-203966
-203939
-203589
-203562
-203856
-203736
-203360
-203387
-203617
-203479
-203148
-203130
-203332
-203231
-202826
-202790
-203010
-202872
-202468
-202385
-202587
-202431
-202045
-201972
-202100
-201907
-201503
-201429
-201576
-201429
-200979
-200878
-201117
-201007
-200611
-200565
-200777
-200740
-200538
-200712
-201218
-201429
-201365
-201687
-202266
-202477
-202505
-202799
-203286
-203451
-203268
-203415
-203801
-203782
-203525
-203599
-203911
-203893
-203617
-203663
-203948
-203902
-203589
-203644
-203966
-203920
-203608
-203635
-203929
-203929
-203644
-203644
-203948
-203929
-203644
-203672
-203957
-203939
-203672
-203727
-204058
-204067
-203782
-203764
-204086
-204095
-203773
-203893
-204233
-204150
-203939
-204021
-204297
-204269
-203957
-203994
-204343
-204297
-203985
-204049
-204352
-204325
-203994
-204012
-204297
-204214
-203755
-203553
-203599
-203369
-203130
-203268
-203314
-202863
-202689
-203084
-203479
-203451
-203148
-203507
-204168
-204306
-204178
-204233
-204564
-204573
-204315
-204389
-204720
-204729
-204426
-204444
-204766
-204803
-204490
-204499
-204793
-204729
-204426
-204472
-204747
-204554
-204104
-204030
-204141
-204325
-204012
-202707
-200814
-197624
-193075
-189481
-186503
-185014
-192808
-203626
-205887
-204315
-202974
-202652
-203617
-204012
-203847
-203948
-204224
-204168
-203929
-203957
-204269
-204178
-203810
-203874
-204150
-204086
-203718
-203764
-204076
-203911
-203580
-203589
-203847
-203782
-203405
-203396
-203617
-203497
-203176
-203167
-203378
-203222
-202863
-202882
-203038
-202891
-202459
-202367
-202615
-202440
-201981
-201935
-202155
-201981
-201530
-201485
-201678
-201503
-201089
-201007
-201200
-201108
-200786
-200841
-201163
-201209
-201154
-201448
-201944
-202192
-202155
-202486
-203130
-203341
-203268
-203507
-203902
-203975
-203819
-203911
-204251
-204260
-203994
-204040
-204352
-204306
-203985
-204058
-204380
-204361
-204076
-204095
-204398
-204343
-204067
-204178
-204472
-204417
-204122
-204178
-204481
-204472
-204168
-204168
-204508
-204499
-204214
-204306
-204600
-204545
-204260
-204325
-204656
-204628
-204334
-204389
-204720
-204701
-204398
-204444
-204784
-204757
-204453
-204518
-204738
-204674
-204343
-204242
-204343
-204012
-203571
-203700
-204067
-203681
-202992
-203304
-203929
-203893
-203571
-203663
-204279
-204656
-204573
-204692
-204996
-204996
-204747
-204858
-205207
-205143
-204867
-204931
-205253
-205216
-204885
-204959
-205244
-205198
-204913
-204931
-205207
-205097
-204738
-204665
-204766
-204573
-204417
-204407
-203332
-201053
-197615
-193295
-189867
-186549
-184848
-193111
-204371
-206301
-204426
-203433
-203332
-203929
-204113
-204361
-204665
-204564
-204306
-204371
-204646
-204591
-204260
-204288
-204582
-204490
-204150
-204150
-204417
-204343
-204003
-204003
-204251
-204150
-203792
-203819
-204058
-203883
-203543
-203571
-203764
-203635
-203240
-203212
-203442
-203249
-202872
-202845
-203001
-202836
-202422
-202358
-202542
-202330
-201917
-201852
-202008
-201861
-201466
-201420
-201632
-201485
-201108
-201117
-201457
-201475
-201319
-201586
-202110
-202321
-202303
-202661
-203231
-203461
-203396
-203654
-204168
-204205
-204040
-204205
-204527
-204527
-204288
-204343
-204637
-204610
-204315
-204371
-204701
-204628
-204315
-204398
-204665
-204610
-204334
-204380
-204692
-204637
-204334
-204398
-204701
-204619
-204343
-204444
-204711
-204674
-204398
-204453
-204775
-204720
-204426
-204508
-204821
-204766
-204490
-204554
-204867
-204849
-204564
-204637
-204950
-204894
-204600
-204692
-205014
-204977
-204665
-204711
-205005
-204959
-204729
-204784
-205069
-205023
-204674
-204665
-204821
-204508
-203902
-203828
-204233
-204260
-203700
-203387
-203856
-204150
-203911
-203966
-204325
-204536
-204582
-204858
-205244
-205189
-204913
-205023
-205363
-205317
-205005
-205069
-205372
-205354
-205087
-205161
-205492
-205418
-205115
-205152
-205409
-205345
-204996
-204940
-205097
-204858
-204518
-204775
-204380
-202422
-199674
-196007
-191916
-188552
-185299
-188240
-200078
-206815
-205437
-203994
-203525
-203746
-204168
-204545
-204876
-204784
-204499
-204564
-204858
-204747
-204453
-204508
-204738
-204656
-204343
-204371
-204637
-204545
-204187
-204233
-204518
-204389
-204049
-204058
-204288
-204168
-203819
-203810
-204030
-203911
-203516
-203470
-203681
-203525
-203130
-203102
-203323
-203102
-202670
-202652
-202799
-202587
-202165
-202100
-202284
-202073
-201687
-201659
-201815
-201687
-201310
-201273
-201549
-201530
-201319
-201521
-202045
-202229
-202201
-202578
-203121
-203332
-203341
-203663
-204159
-204242
-204076
-204260
-204628
-204628
-204389
-204453
-204757
-204711
-204426
-204490
-204784
-204738
-204462
-204518
-204784
-204692
-204417
-204508
-204775
-204701
-204426
-204481
-204784
-204711
-204417
-204472
-204775
-204729
-204453
-204545
-204858
-204812
-204536
-204610
-204940
-204876
-204591
-204711
-205032
-204968
-204683
-204775
-205087
-205023
-204747
-204830
-205115
-205060
-204775
-204830
-205124
-205087
-204784
-204849
-205143
-205051
-204803
-204885
-205143
-205097
-204812
-204876
-205133
-205014
-204646
-204545
-204582
-204224
-203819
-204021
-204334
-203856
-203350
-203810
-204315
-204224
-203994
-204168
-204766
-205023
-204885
-205014
-205299
-205235
-204986
-205106
-205428
-205400
-205152
-205216
-205501
-205464
-205179
-205253
-205529
-205428
-205115
-205189
-205455
-205299
-204876
-204803
-204931
-204950
-204646
-203479
-201659
-198654
-194122
-190326
-187422
-185749
-192753
-203893
-206834
-204986
-203516
-203222
-204113
-204582
-204481
-204545
-204830
-204803
-204499
-204536
-204803
-204711
-204398
-204453
-204701
-204582
-204297
-204343
-204582
-204453
-204122
-204168
-204398
-204288
-203957
-203957
-204178
-204049
-203690
-203672
-203911
-203746
-203378
-203360
-203543
-203350
-202955
-202946
-203111
-202909
-202514
-202459
-202615
-202422
-202018
-201953
-202110
-201917
-201530
-201485
-201659
-201503
-201117
-201172
-201503
-201521
-201383
-201687
-202238
-202450
-202486
-202845
-203415
-203580
-203534
-203874
-204306
-204306
-204122
-204269
-204600
-204573
-204315
-204435
-204701
-204582
-204343
-204435
-204674
-204591
-204297
-204361
-204646
-204554
-204269
-204371
-204646
-204554
-204279
-204334
-204619
-204582
-204297
-204389
-204656
-204564
-204352
-204435
-204692
-204665
-204398
-204472
-204757
-204701
-204453
-204554
-204839
-204812
-204573
-204591
-204885
-204812
-204536
-204610
-204904
-204885
-204573
-204646
-204940
-204858
-204610
-204701
-204940
-204839
-204600
-204674
-204968
-204894
-204545
-204610
-204885
-204656
-204141
-203957
-204040
-203994
-203828
-203718
-203516
-203415
-203543
-203792
-204067
-204030
-203957
-204371
-204950
-205023
-204711
-204812
