# aauwss ecg epoch, one sample per line
# source AAUWSS (Aalborg University Wearable Sleep Study) v1.1, Zenodo 10.5281/zenodo.16919071
# licence CC-BY-4.0 - Djanian S, Nielsen T D, Nielsen S H, Bruun A (2025)
# subject 09
# fs_hz 200.0
# samples 6000
# scale 0.1  (value = count * scale, arbitrary published units, NOT mV)
# source_row 460 of 920
# stage_label N2
# epoch 461.0
-22733
-23031
-22616
-22317
-22772
-23070
-22629
-22356
-22759
-23044
-22668
-22408
-22837
-23122
-22707
-22382
-22837
-23135
-22746
-22460
-22837
-23148
-22759
-22408
-22837
-23174
-22759
-22486
-22888
-23187
-22772
-22473
-22888
-23174
-22798
-22525
-22953
-23239
-22849
-22590
-22966
-23265
-22837
-22499
-22953
-23239
-22811
-22577
-23018
-23317
-22875
-22551
-22992
-23317
-22888
-22629
-23005
-23070
-22408
-21901
-22291
-22694
-22109
-21719
-22005
-21927
-21394
-21160
-21810
-22239
-21680
-21563
-22642
-23408
-22992
-22798
-23330
-23616
-23278
-23122
-23551
-23733
-23213
-22811
-23538
-24422
-23876
-21797
-18055
-12233
-5360
-2787
-7413
-13429
-16794
-18484
-19926
-21043
-21251
-21420
-22174
-22759
-22460
-22304
-22849
-23122
-22746
-22434
-22798
-23083
-22629
-22304
-22759
-23070
-22629
-22317
-22694
-23018
-22564
-22161
-22551
-22785
-22278
-21966
-22382
-22642
-22135
-21771
-22057
-22252
-21849
-21368
-21693
-22057
-21511
-21004
-21173
-21212
-20628
-20147
-20316
-20368
-19627
-18990
-19159
-19159
-18471
-17925
-18055
-18172
-17548
-16976
-17327
-17782
-17561
-17652
-18639
-19510
-19653
-19809
-20718
-21485
-21420
-21394
-22018
-22642
-22382
-22122
-22707
-23096
-22668
-22408
-22849
-23070
-22642
-22343
-22733
-23031
-22564
-22291
-22785
-23057
-22616
-22265
-22629
-22901
-22499
-22265
-22759
-23044
-22564
-22278
-22707
-22979
-22629
-22369
-22824
-23135
-22681
-22460
-22875
-23161
-22720
-22421
-23005
-23343
-22888
-22707
-23109
-23278
-22927
-22720
-23018
-23265
-22862
-22629
-23135
-23473
-23044
-22733
-23252
-23577
-23122
-22785
-23109
-23473
-23200
-22862
-23174
-23473
-23096
-22888
-23317
-23551
-23200
-22888
-23343
-23681
-23135
-22875
-23330
-23551
-23096
-22785
-23304
-23720
-23278
-22901
-23291
-23616
-23200
-22927
-23343
-23603
-23213
-22772
-22953
-23031
-22473
-22252
-22590
-22785
-22239
-21550
-21901
-22226
-21784
-21693
-22083
-22486
-22616
-22707
-23304
-23746
-23421
-23200
-23707
-24071
-23629
-23226
-23564
-23759
-23473
-23707
-24266
-23109
-19003
-13325
-7478
-4242
-6867
-12233
-16781
-19302
-19783
-20290
-21355
-22109
-22096
-22057
-22629
-23005
-22616
-22330
-22798
-23122
-22668
-22369
-22759
-23005
-22603
-22291
-22668
-22901
-22408
-22083
-22460
-22694
-22213
-21875
-22265
-22512
-22005
-21667
-22057
-22278
-21745
-21394
-21771
-21940
-21394
-20952
-21264
-21420
-20848
-20407
-20628
-20679
-20004
-19445
-19588
-19588
-18847
-18263
-18406
-18393
-17665
-17158
-17392
-17470
-16976
-16794
-17483
-18185
-18237
-18471
-19419
-20199
-20264
-20407
-21212
-21810
-21615
-21524
-22122
-22525
-22161
-21940
-22408
-22681
-22265
-22005
-22421
-22707
-22239
-21914
-22343
-22603
-22135
-21823
-22252
-22538
-22109
-21810
-22213
-22473
-22057
-21771
-22200
-22512
-22070
-21784
-22239
-22525
-22122
-21862
-22291
-22603
-22187
-21914
-22382
-22642
-22252
-22031
-22421
-22707
-22317
-22031
-22512
-22824
-22369
-22096
-22564
-22862
-22447
-22213
-22642
-22940
-22538
-22239
-22707
-22979
-22512
-22252
-22707
-22966
-22525
-22265
-22707
-22966
-22551
-22291
-22720
-22979
-22551
-22291
-22746
-23018
-22564
-22265
-22681
-22953
-22538
-22278
-22694
-22927
-22525
-22265
-22668
-22940
-22525
-22213
-22655
-22953
-22499
-22213
-22642
-22901
-22473
-22057
-22239
-22291
-21706
-21511
-21914
-22005
-21537
-21004
-21173
-21446
-21030
-20952
-21459
-21641
-21524
-21875
-22642
-22979
-22668
-22447
-22901
-23265
-22875
-22590
-22940
-23044
-22629
-22720
-23590
-23408
-20550
-15534
-9336
-3423
-2098
-6776
-12909
-17002
-18445
-19055
-20238
-21095
-21173
-21251
-21927
-22356
-22005
-21771
-22226
-22538
-22096
-21797
-22226
-22473
-22031
-21771
-22148
-22395
-21953
-21615
-22018
-22265
-21797
-21498
-21875
-22109
-21641
-21290
-21667
-21862
-21342
-21030
-21368
-21537
-21030
-20679
-21017
-21134
-20550
-20121
-20368
-20420
-19744
-19224
-19367
-19341
-18626
-18016
-18172
-18172
-17444
-16898
-17067
-17132
-16599
-16327
-16937
-17548
-17561
-17821
-18769
-19601
-19692
-19874
-20731
-21368
-21225
-21186
-21797
-22200
-21862
-21680
-22148
-22447
-22031
-21758
-22187
-22447
-22018
-21732
-22161
-22421
-21940
-21654
-22096
-22369
-21901
-21628
-22057
-22330
-21888
-21602
-22044
-22304
-21875
-21641
-22083
-22382
-21940
-21680
-22148
-22421
-22018
-21784
-22226
-22525
-22083
-21836
-22317
-22577
-22161
-21914
-22369
-22642
-22213
-21966
-22434
-22733
-22317
-22070
-22525
-22785
-22369
-22109
-22551
-22824
-22408
-22148
-22551
-22824
-22421
-22161
-22603
-22849
-22421
-22187
-22655
-22914
-22486
-22226
-22629
-22914
-22486
-22213
-22668
-22914
-22460
-22200
-22616
-22888
-22473
-22200
-22616
-22875
-22460
-22187
-22642
-22901
-22460
-22213
-22642
-22901
-22486
-22213
-22642
-22927
-22486
-22226
-22629
-22875
-22460
-22200
-22642
-22888
-22460
-22213
-22642
-22888
-22421
-22161
-22616
-22888
-22447
-22200
-22642
-22888
-22460
-22187
-22616
-22888
-22434
-22148
-22551
-22564
-21849
-21472
-21914
-22148
-21589
-21251
-21524
-21498
-20965
-20744
-21342
-21719
-21199
-21134
-22161
-22824
-22460
-22304
-22798
-23109
-22746
-22512
-22966
-23200
-22616
-22317
-23122
-23902
-23135
-20615
-16482
-10232
-3332
-1617
-6698
-12662
-16249
-18029
-19406
-20446
-20537
-20835
-21706
-22174
-21875
-21732
-22200
-22486
-22109
-21888
-22291
-22551
-22122
-21849
-22252
-22434
-21953
-21680
-22096
-22291
-21771
-21524
-21953
-22122
-21641
-21381
-21784
-22044
-21498
-21056
-21524
-21771
-21160
-20796
-21108
-21251
-20757
-20381
-20628
-20667
-20043
-19588
-19757
-19744
-18977
-18484
-18704
-18613
-17847
-17262
-17418
-17470
-16807
-16417
-16885
-17184
-16976
-17197
-18133
-18938
-19029
-19263
-20264
-20978
-20926
-21030
-21758
-22161
-21849
-21719
-22239
-22551
-22135
-21888
-22395
-22707
-22187
-21901
-22473
-22733
-22226
-21992
-22421
-22616
-22122
-21836
-22304
-22603
-22252
-22044
-22421
-22616
-22161
-21979
-22538
-22746
-22278
-22070
-22512
-22785
-22408
-22252
-22694
-22953
-22603
-22330
-22811
-23057
-22525
-22447
-23031
-23161
-22668
-22434
-22914
-23252
-22785
-22512
-23005
-23265
-22811
-22616
-23161
-23369
-22798
-22538
-23096
-23369
-22875
-22707
-23109
-23330
-23018
-22824
-23265
-23421
-22862
-22668
-23148
-23512
-23148
-22849
-23304
-23538
-23057
-22798
-23317
-23551
-23096
-22927
-23317
-23590
-23174
-22927
-23447
-23720
-23265
-22940
-23330
-23564
-23148
-22992
-23499
-23746
-23252
-23057
-23551
-23746
-23369
-23135
-23486
-23629
-23213
-23109
-23499
-23707
-23291
-23057
-23590
-23876
-23343
-22966
-23460
-23720
-23278
-23187
-23668
-23694
-22953
-22538
-22901
-23122
-22681
-22343
-22759
-22746
-21979
-21628
-22057
-22512
-22161
-21888
-22785
-23590
-23395
-23304
-23876
-24110
-23707
-23616
-24123
-24331
-23785
-23421
-23902
-24591
-24604
-23577
-21056
-16417
-9855
-4645
-6087
-11688
-15885
-18548
-20251
-21277
-21511
-21719
-22655
-23174
-22914
-22798
-23330
-23629
-23148
-22940
-23421
-23590
-23148
-22914
-23278
-23499
-23044
-22772
-23213
-23421
-22914
-22616
-23031
-23213
-22733
-22486
-22888
-23044
-22499
-22213
-22616
-22746
-22213
-21927
-22330
-22421
-21810
-21446
-21719
-21797
-21186
-20731
-20939
-20939
-20212
-19692
-19835
-19731
-18990
-18509
-18665
-18613
-17912
-17509
-17912
-18120
-17795
-17873
-18769
-19549
-19640
-19926
-20887
-21602
-21576
-21680
-22447
-22966
-22655
-22538
-23070
-23382
-23018
-22837
-23330
-23538
-23044
-22849
-23291
-23473
-23018
-22746
-23213
-23473
-23018
-22824
-23278
-23447
-22953
-22733
-23226
-23460
-22992
-22785
-23278
-23499
-23031
-22824
-23317
-23564
-23109
-22901
-23382
-23590
-23161
-22953
-23447
-23707
-23278
-23096
-23577
-23811
-23356
-23161
-23655
-23889
-23447
-23213
-23681
-23941
-23460
-23252
-23733
-23967
-23499
-23265
-23759
-23967
-23525
-23330
-23798
-24019
-23525
-23330
-23811
-24032
-23590
-23369
-23863
-24058
-23590
-23395
-23850
-24097
-23616
-23421
-23902
-24097
-23642
-23447
-23902
-24097
-23655
-23434
-23876
-24123
-23668
-23434
-23902
-24097
-23616
-23421
-23902
-24084
-23642
-23447
-23889
-24084
-23629
-23434
-23889
-24123
-23655
-23421
-23902
-24097
-23642
-23447
-23876
-24097
-23642
-23408
-23876
-24097
-23629
-23434
-23889
-24110
-23642
-23408
-23889
-24071
-23603
-23395
-23824
-23824
-23096
-22733
-23135
-23408
-22837
-22499
-22875
-22798
-22161
-21927
-22486
-22862
-22343
-22174
-23161
-23941
-23616
-23460
-24071
-24279
-23876
-23772
-24253
-24435
-23837
-23512
-24214
-24942
-24539
-22824
-19536
-13806
-6399
-2462
-5866
-12012
-16236
-18730
-20316
-21303
-21498
-21810
-22733
-23200
-22888
-22837
-23408
-23642
-23161
-22992
-23460
-23629
-23148
-22927
-23382
-23538
-23031
-22798
-23265
-23447
-22927
-22681
-23083
-23278
-22785
-22525
-22953
-23109
-22538
-22252
-22694
-22824
-22239
-21940
-22317
-22395
-21771
-21446
-21771
-21784
-21121
-20718
-20939
-20861
-20108
-19627
-19796
-19653
-18834
-18341
-18548
-18471
-17756
-17366
-17756
-17977
-17691
-17886
-18808
-19536
-19666
-20004
-20978
-21641
-21589
-21758
-22525
-22940
-22629
-22551
-23135
-23395
-22966
-22824
-23330
-23512
-23018
-22837
-23304
-23473
-23031
-22837
-23265
-23460
-22953
-22746
-23226
-23421
-22927
-22733
-23213
-23382
-22940
-22733
-23174
-23356
-22914
-22746
-23226
-23408
-22966
-22811
-23265
-23486
-23057
-22862
-23369
-23577
-23096
-22953
-23473
-23655
-23187
-23018
-23486
-23681
-23226
-23057
-23538
-23733
-23265
-23109
-23603
-23785
-23304
-23096
-23590
-23798
-23304
-23109
-23642
-23824
-23330
-23174
-23681
-23863
-23395
-23239
-23681
-23863
-23408
-23187
-23694
-23902
-23369
-23213
-23707
-23889
-23408
-23239
-23733
-23915
-23434
-23239
-23720
-23902
-23408
-23239
-23746
-23941
-23447
-23252
-23733
-23915
-23421
-23265
-23733
-23876
-23395
-23226
-23707
-23876
-23382
-23200
-23681
-23863
-23369
-23213
-23720
-23850
-23369
-23226
-23681
-23863
-23369
-23187
-23668
-23837
-23343
-23161
-23668
-23824
-23317
-23122
-23603
-23746
-23239
-23096
-23460
-23343
-22655
-22395
-22888
-22979
-22330
-22122
-22382
-22330
-21810
-21615
-22213
-22447
-21901
-22044
-23187
-23668
-23239
-23200
-23759
-23954
-23551
-23434
-23915
-24006
-23369
-23252
-24253
-24838
-23538
-20433
-15625
-8894
-2878
-3332
-9401
-14910
-17795
-19146
-20472
-21355
-21394
-21732
-22525
-22901
-22564
-22473
-22992
-23200
-22707
-22538
-23005
-23161
-22642
-22447
-22940
-23057
-22499
-22343
-22811
-22901
-22382
-22174
-22603
-22733
-22174
-22005
-22434
-22486
-21953
-21693
-22109
-22200
-21576
-21303
-21706
-21719
-21082
-20770
-21108
-21069
-20329
-19939
-20160
-20030
-19224
-18743
-18938
-18743
-17886
-17457
-17704
-17587
-16872
-16599
-17041
-17301
-17093
-17366
-18380
-19068
-19120
-19523
-20511
-21108
-21017
-21186
-21953
-22304
-21940
-21914
-22473
-22655
-22213
-22122
-22603
-22733
-22226
-22070
-22551
-22668
-22135
-21966
-22434
-22551
-22018
-21901
-22382
-22486
-22005
-21901
-22395
-22512
-22031
-21888
-22421
-22590
-22096
-21966
-22473
-22642
-22200
-22057
-22551
-22746
-22317
-22187
-22681
-22811
-22343
-22291
-22785
-22888
-22395
-22291
-22849
-23005
-22512
-22382
-22849
-23005
-22551
-22447
-22953
-23083
-22629
-22512
-23070
-23252
-22720
-22551
-23044
-23187
-22668
-22551
-23148
-23252
-22746
-22655
-23135
-23265
-22811
-22655
-23122
-23278
-22811
-22720
-23239
-23369
-22862
-22746
-23226
-23304
-22862
-22733
-23213
-23369
-22862
-22785
-23317
-23369
-22849
-22733
-23252
-23395
-22875
-22798
-23291
-23356
-22875
-22837
-23382
-23460
-22875
-22811
-23369
-23460
-22927
-22875
-23434
-23473
-22992
-22914
-23330
-23330
-22564
-22304
-22746
-22772
-22174
-21927
-22356
-22252
-21602
-21472
-21836
-21901
-21368
-21342
-22239
-22914
-22862
-22927
-23538
-23655
-23213
-23330
-23967
-24006
-23421
-23135
-23590
-24227
-24214
-23408
-21095
-16210
-9297
-3748
-4723
-10336
-14884
-17925
-19939
-20848
-21030
-21446
-22382
-22733
-22447
-22551
-23174
-23343
-22888
-22772
-23265
-23395
-22862
-22785
-23278
-23226
-22668
-22629
-23122
-23083
-22564
-22577
-23057
-23070
-22525
-22382
-22837
-22849
-22317
-22135
-22525
-22629
-22070
-21836
-22239
-22291
-21641
-21342
-21693
-21667
-21017
-20744
-20978
-20757
-19939
-19588
-19796
-19536
-18808
-18432
-18613
-18458
-17769
-17496
-17821
-17925
-17535
-17639
-18587
-19224
-19237
-19718
-20783
-21355
-21264
-21537
-22395
-22759
-22408
-22473
-23070
-23252
-22811
-22811
-23434
-23473
-23031
-22979
-23317
-23369
-22875
-22759
-23291
-23356
-22798
-22707
-23317
-23421
-22811
-22824
-23408
-23291
-22759
-22798
-23291
-23343
-22849
-22772
-23343
-23460
-22979
-23018
-23551
-23577
-23109
-23044
-23590
-23681
-23135
-23122
-23707
-23772
-23278
-23213
-23733
-23850
-23317
-23226
-23772
-23824
-23369
-23382
-23863
-23889
-23395
-23369
-23889
-23915
-23382
-23369
-23941
-23967
-23434
-23382
-23876
-23941
-23460
-23434
-23941
-23993
-23499
-23473
-23993
-24019
-23486
-23434
-23967
-24058
-23551
-23486
-23993
-24071
-23525
-23447
-23954
-24019
-23499
-23434
-23980
-24032
-23499
-23473
-23980
-23993
-23460
-23421
-23928
-23967
-23395
-23135
-23369
-23200
-22642
-22655
-23083
-22966
-22278
-21979
-22330
-22330
-21810
-21836
-22382
-22551
-22590
-23109
-23811
-23993
-23603
-23590
-24162
-24266
-23759
-23746
-24149
-24071
-23824
-24331
-24760
-22914
-18302
-12272
-6178
-3696
-7205
-13013
-17639
-19783
-20199
-20926
-22018
-22538
-22382
-22616
-23291
-23408
-22979
-22979
-23499
-23538
-22979
-22940
-23447
-23421
-22901
-22849
-23330
-23330
-22785
-22759
-23239
-23213
-22616
-22525
-22979
-22966
-22395
-22291
-22759
-22720
-22122
-22005
-22434
-22369
-21745
-21602
-22018
-21901
-21225
-21017
-21303
-21121
-20355
-20056
-20264
-20004
-19159
-18769
-18990
-18730
-17886
-17613
-17899
-17769
-17197
-17236
-17990
-18393
-18380
-18925
-20004
-20576
-20576
-21030
-21953
-22304
-22070
-22278
-22927
-23057
-22642
-22681
-23265
-23291
-22798
-22785
-23265
-23330
-22811
-22759
-23265
-23278
-22759
-22707
-23200
-23213
-22655
-22642
-23148
-23161
-22668
-22642
-23135
-23161
-22668
-22668
-23187
-23213
-22720
-22733
-23265
-23278
-22798
-22811
-23330
-23395
-22901
-22862
-23421
-23460
-22927
-22940
-23486
-23499
-22979
-22979
-23512
-23538
-23044
-23044
-23564
-23577
-23070
-23083
-23590
-23577
-23109
-23096
-23590
-23629
-23096
-23096
-23629
-23629
-23109
-23109
-23629
-23629
-23148
-23148
-23668
-23668
-23122
-23135
-23681
-23655
-23135
-23148
-23681
-23681
-23122
-23135
-23642
-23642
-23135
-23122
-23668
-23668
-23148
-23135
-23616
-23642
-23122
-23109
-23642
-23642
-23109
-23096
-23616
-23616
-23109
-23096
-23603
-23577
-23031
-23044
-23564
-23538
-22953
-22707
-22979
-22849
-22291
-22317
-22668
-22447
-21797
-21641
-22031
-21966
-21446
-21485
-22031
-22200
-22278
-22837
-23499
-23603
-23174
-23226
-23850
-23902
-23408
-23395
-23785
-23733
-23590
-24136
-24409
-22291
-17249
-10791
-4762
-2852
-6802
-12727
-17340
-19419
-19861
-20654
-21745
-22252
-22135
-22369
-23044
-23148
-22681
-22733
-23291
-23265
-22720
-22720
-23200
-23161
-22642
-22616
-23083
-23018
-22486
-22460
-22914
-22901
-22356
-22291
-22759
-22694
-22148
-22096
-22564
-22499
-21888
-21810
-22252
-22122
-21524
-21433
-21771
-21628
-20978
-20796
-21095
-20887
-20121
-19835
-20069
-19731
-18886
-18574
-18756
-18458
-17665
-17392
-17704
-17509
-16924
-17028
-17782
-18172
-18159
-18730
-19822
-20342
-20316
-20783
-21693
-22057
-21849
-22031
-22668
-22772
-22369
-22421
-22979
-23005
-22499
-22538
-23031
-22979
-22460
-22473
-22966
-22914
-22395
-22395
-22888
-22837
-22317
-22343
-22849
-22811
-22304
-22343
-22862
-22837
-22304
-22330
-22862
-22888
-22395
-22408
-22940
-22966
-22434
-22486
-23031
-23005
-22525
-22577
-23083
-23083
-22577
-22629
-23174
-23135
-22629
-22681
-23213
-23213
-22707
-22746
-23265
-23226
-22707
-22772
-23304
-23278
-22759
-22772
-23304
-23291
-22811
-22837
-23317
-23291
-22785
-22785
-23317
-23317
-22785
-22824
-23356
-23291
-22772
-22811
-23330
-23304
-22772
-22798
-23330
-23304
-22759
-22785
-23291
-23252
-22759
-22811
-23317
-23291
-22798
-22811
-23304
-23291
-22772
-22798
-23317
-23265
-22759
-22798
-23304
-23278
-22733
-22746
-23278
-23239
-22733
-22772
-23265
-23187
-22694
-22720
-23044
-22759
-22031
-21979
-22538
-22395
-21706
-21602
-21888
-21706
-21134
-21160
-21745
-21732
-21251
-21784
-22966
-23148
-22707
-22875
-23460
-23486
-23031
-23109
-23551
-23382
-22772
-23070
-24175
-24214
-22239
-18548
-13078
-6035
-1643
-4580
-11129
-15833
-18003
-19224
-20563
-21160
-21134
-21602
-22421
-22590
-22187
-22343
-22914
-22824
-22291
-22317
-22798
-22720
-22239
-22291
-22746
-22681
-22148
-22148
-22577
-22525
-22018
-21979
-22460
-22369
-21784
-21784
-22252
-22200
-21602
-21524
-21966
-21836
-21212
-21134
-21511
-21368
-20783
-20667
-20952
-20705
-19978
-19731
-19926
-19666
-18873
-18548
-18769
-18445
-17600
-17353
-17626
-17327
-16625
-16599
-17158
-17275
-17106
-17678
-18717
-19224
-19289
-19861
-20822
-21225
-21108
-21381
-22096
-22200
-21823
-22018
-22603
-22590
-22057
-22096
-22681
-22655
-22135
-22122
-22616
-22577
-22031
-22070
-22616
-22590
-21992
-22018
-22525
-22369
-21914
-22044
-22525
-22512
-22018
-22044
-22564
-22486
-22031
-22135
-22642
-22629
-22148
-22187
-22733
-22707
-22226
-22330
-22837
-22746
-22239
-22343
-22966
-22966
-22395
-22421
-22927
-22849
-22408
-22525
-23057
-22979
-22473
-22564
-23031
-22953
-22538
-22616
-23070
-23057
-22538
-22551
-23135
-23135
-22590
-22681
-23239
-23161
-22616
-22616
-23187
-23239
-22707
-22772
-23330
-23213
-22642
-22655
-23174
-23122
-22642
-22772
-23252
-23148
-22629
-22720
-23226
-23187
-22733
-22707
-23278
-23291
-22733
-22785
-23213
-23135
-22668
-22849
-23421
-23252
-22681
-22733
-23265
-23200
-22642
-22551
-22759
-22486
-21914
-22044
-22525
-22330
-21719
-21524
-21797
-21654
-21043
-21121
-21758
-21836
-21693
-22252
-23109
-23187
-22837
-22992
-23447
-23486
-23148
-23239
-23616
-23343
-22953
-23616
-24396
-23083
-19120
-13910
-8088
-4008
-5970
-11727
-16495
-18795
-19393
-20303
-21394
-21771
-21654
-21992
-22720
-22759
-22291
-22382
-22992
-22901
-22304
-22395
-22849
-22720
-22226
-22278
-22759
-22616
-22070
-22135
-22616
-22512
-21953
-22018
-22512
-22343
-21719
-21745
-22213
-22031
-21446
-21433
-21849
-21654
-21030
-21043
-21433
-21160
-20472
-20394
-20705
-20394
-19627
-19445
-19705
-19276
-18458
-18263
-18458
-18120
-17353
-17197
-17457
-17184
-16586
-16690
-17366
-17600
-17522
-18133
-19211
-19640
-19614
-20199
-21108
-21316
-21095
-21433
-22096
-22109
-21680
-21849
-22421
-22317
-21823
-21953
-22447
-22317
-21797
-21914
-22408
-22265
-21706
-21771
-22291
-22161
-21641
-21758
-22226
-22122
-21628
-21680
-22213
-22122
-21628
-21758
-22278
-22200
-21706
-21862
-22369
-22226
-21719
-21849
-22382
-22291
-21810
-21940
-22460
-22369
-21901
-22044
-22538
-22421
-21953
-22070
-22590
-22512
-21992
-22109
-22694
-22603
-22044
-22148
-22668
-22538
-22044
-22135
-22629
-22538
-22031
-22135
-22655
-22551
-22057
-22174
-22681
-22590
-22096
-22213
-22707
-22616
-22109
-22200
-22707
-22616
-22122
-22226
-22707
-22577
-22122
-22213
-22720
-22616
-22109
-22239
-22746
-22616
-22135
-22252
-22733
-22629
-22083
-22200
-22720
-22590
-22109
-22226
-22707
-22577
-22057
-22174
-22668
-22473
-21771
-21654
-21966
-21810
-21329
-21251
-21654
-21407
-20628
-20628
-21056
-20952
-20550
-20679
-21303
-21732
-21797
-22031
-22629
-22668
-22200
-22369
-22940
-22849
-22291
-22291
-22720
-22888
-22914
-22862
-21472
-17210
-10492
-3852
-1591
-5347
-10921
-15430
-18211
-19094
-19367
-20082
-21108
-21407
-21160
-21420
-22018
-22005
-21511
-21641
-22161
-22005
-21524
-21654
-22109
-21979
-21446
-21524
-21992
-21849
-21303
-21381
-21849
-21654
-21134
-21238
-21667
-21498
-20926
-20965
-21446
-21290
-20679
-20718
-21121
-20874
-20264
-20277
-20615
-20329
-19692
-19601
-19887
-19497
-18704
-18548
-18743
-18328
-17509
-17327
-17535
-17119
-16352
-16262
-16586
-16391
-15950
-16262
-17171
-17561
-17613
-18328
-19341
-19731
-19718
-20212
-21082
-21251
-20939
-21225
-21849
-21797
-21355
-21511
-22044
-21940
-21472
-21589
-22083
-21953
-21459
-21576
-22044
-21901
-21381
-21511
-22005
-21849
-21342
-21498
-21992
-21862
-21368
-21498
-22005
-21888
-21394
-21550
-22083
-21966
-21472
-21615
-22122
-22031
-21550
-21667
-22161
-22083
-21602
-21745
-22291
-22148
-21641
-21810
-22304
-22200
-21732
-21875
-22408
-22278
-21771
-21901
-22460
-22356
-21849
-21992
-22499
-22395
-21888
-22018
-22564
-22460
-21966
-22096
-22616
-22499
-22018
-22174
-22668
-22551
-22057
-22187
-22707
-22590
-22083
-22239
-22720
-22564
-22044
-22161
-22694
-22590
-22057
-22200
-22733
-22590
-22109
-22239
-22759
-22629
-22135
-22265
-22772
-22629
-22122
-22265
-22759
-22642
-22161
-22291
-22798
-22668
-22161
-22304
-22811
-22668
-22174
-22317
-22798
-22655
-22161
-22291
-22772
-22629
-22135
-22291
-22785
-22655
-22161
-22265
-22772
-22642
-22122
-22161
-22395
-22057
-21433
-21576
-22070
-21758
-21225
-21160
-21368
-21199
-20718
-21004
-21602
-21394
-21186
-22005
-22875
-22798
-22447
-22681
-23200
-23135
-22707
-22849
-23291
-23018
-22499
-23083
-24110
-23577
-20731
-16093
-9907
-3397
-1786
-6880
-13169
-16937
-18367
-19380
-20654
-21082
-21082
-21628
-22395
-22395
-21992
-22174
-22733
-22629
-22122
-22265
-22746
-22577
-22070
-22161
-22616
-22486
-21940
-22018
-22499
-22304
-21784
-21888
-22304
-22109
-21589
-21693
-22148
-21953
-21355
-21420
-21849
-21602
-21017
-21069
-21459
-21173
-20511
-20498
-20796
-20459
-19744
-19640
-19874
-19406
-18613
-18445
-18613
-18146
-17353
-17223
-17470
-17093
-16417
-16495
-17106
-17223
-17119
-17769
-18795
-19185
-19263
-19926
-20861
-21147
-20991
-21368
-22083
-22122
-21745
-21992
-22551
-22434
-21966
-22135
-22629
-22486
-21979
-22109
-22590
-22421
-21940
-22070
-22512
-22369
-21875
-22031
-22525
-22343
-21849
-22057
-22564
-22408
-21901
-22070
-22564
-22408
-21953
-22148
-22733
-22616
-22109
-22291
-22759
-22655
-22213
-22330
-22837
-22720
-22239
-22421
-22940
-22824
-22382
-22590
-23083
-22901
-22395
-22577
-23096
-22966
-22538
-22694
-23148
-22979
-22486
-22681
-23239
-23057
-22538
-22707
-23187
-23083
-22603
-22798
-23343
-23122
-22642
-22837
-23317
-23187
-22694
-22798
-23330
-23265
-22785
-22914
-23408
-23291
-22811
-22953
-23486
-23356
-22849
-22966
-23434
-23278
-22798
-22927
-23408
-23291
-22811
-22979
-23460
-23304
-22798
-23005
-23538
-23343
-22824
-22953
-23473
-23343
-22888
-23057
-23603
-23499
-22888
-22992
-23538
-23408
-22953
-23096
-23512
-23317
-22849
-23018
-23499
-23343
-22837
-23005
-23434
-23070
-22304
-22330
-22901
-22746
-22057
-21992
-22252
-21953
-21394
-21472
-22083
-21992
-21459
-22031
-23213
-23382
-23018
-23330
-23824
-23720
-23291
-23486
-23993
-23759
-23187
-23395
-24331
-24578
-23343
-20628
-16093
-9505
-3787
-4749
-10817
-15586
-18081
-19601
-20939
-21485
-21420
-22044
-22914
-22966
-22473
-22642
-23239
-23135
-22707
-22875
-23330
-23109
-22577
-22811
-23343
-23083
-22551
-22694
-23070
-22862
-22447
-22538
-22901
-22720
-22187
-22369
-22798
-22551
-22044
-22083
-22512
-22330
-21667
-21706
-22135
-21771
-21147
-21277
-21576
-21173
-20485
-20407
-20744
-20355
-19445
-19263
-19510
-19055
-18263
-18146
-18419
-18068
-17353
-17314
-17821
-17821
-17535
-18120
-19120
-19471
-19510
-20160
-21186
-21485
-21303
-21732
-22473
-22551
-22252
-22512
-23044
-22940
-22499
-22694
-23187
-23018
-22551
-22720
-23200
-23044
-22577
-22720
-23122
-22953
-22486
-22616
-23070
-22888
-22395
-22577
-23083
-22953
-22473
-22655
-23135
-22992
-22525
-22694
-23187
-23044
-22577
-22772
-23291
-23109
-22642
-22837
-23317
-23161
-22681
-22849
-23369
-23239
-22733
-22875
-23421
-23252
-22720
-22901
-23421
-23278
-22811
-22953
-23460
-23304
-22759
-22875
-23356
-23226
-22733
-22875
-23369
-23174
-22681
-22862
-23356
-23187
-22707
-22862
-23343
-23200
-22707
-22862
-23330
-23148
-22655
-22837
-23343
-23161
-22642
-22837
-23343
-23200
-22733
-22862
-23317
-23122
-22629
-22772
-23278
-23135
-22629
-22811
-23304
-23096
-22616
-22772
-23226
-22927
-22174
-22122
-22486
-22369
-21797
-21823
-22304
-21875
-21160
-21290
-21719
-21654
-21264
-21368
-22187
-22694
-22512
-22707
-23356
-23252
-22785
-23057
-23590
-23421
-22875
-22901
-23356
-23603
-23603
-23304
-21433
-16651
-9752
-3670
-3047
-7789
-13000
-16924
-19211
-19900
-20147
-20861
-21862
-22044
-21784
-22148
-22681
-22538
-22096
-22265
-22772
-22577
-22083
-22252
-22655
-22447
-21966
-22135
-22603
-22369
-21836
-21992
-22434
-22226
-21693
-21810
-22252
-22018
-21485
-21563
-21953
-21732
-21147
-21225
-21628
-21316
-20692
-20757
-21108
-20757
-20082
-20043
-20277
-19848
-19068
-18912
-19107
-18626
-17795
-17678
-17886
-17431
-16664
-16638
-16976
-16781
-16391
-16807
-17756
-18055
-18107
-18886
-19926
-20277
-20238
-20809
-21628
-21706
-21433
-21745
-22330
-22252
-21797
-22018
-22551
-22369
-21875
-22031
-22512
-22369
-21836
-21992
-22473
-22278
-21797
-21940
-22408
-22200
-21680
-21862
-22356
-22200
-21680
-21836
-22356
-22161
-21680
-21875
-22369
-22213
-21745
-21940
-22447
-22304
-21823
-21979
-22499
-22343
-21862
-22083
-22577
-22408
-21927
-22109
-22616
-22447
-21953
-22135
-22616
-22447
-21992
-22187
-22681
-22499
-22044
-22239
-22720
-22564
-22083
-22226
-22720
-22551
-22070
-22265
-22733
-22564
-22070
-22252
-22759
-22577
-22096
-22265
-22746
-22564
-22083
-22278
-22759
-22577
-22122
-22278
-22746
-22577
-22070
-22252
-22746
-22577
-22070
-22265
-22746
-22525
-22031
-22200
-22707
-22512
-22018
-22200
-22668
-22499
-22018
-22135
-22642
-22473
-21953
-22161
-22668
-22486
-21979
-22135
-22629
-22434
-21927
-22109
-22590
-22382
-21888
-21979
-22187
-21745
-21121
-21329
-21797
-21472
-20926
-20874
-21082
-20809
-20342
-20692
-21277
-21017
-20796
-21628
-22473
-22369
-22005
-22265
-22759
-22681
-22252
-22421
-22862
-22525
-22005
-22616
-23616
-23057
-20303
-15807
-9687
-3047
-1162
-6139
-12454
-16171
-17639
-18769
-20043
-20420
-20459
-21017
-21758
-21719
-21290
-21524
-22031
-21862
-21368
-21511
-21979
-21784
-21277
-21472
-21940
-21693
-21199
-21329
-21745
-21537
-21017
-21134
-21576
-21355
-20809
-20952
-21381
-21121
-20576
-20679
-21095
-20861
-20264
-20342
-20705
-20381
-19770
-19796
-20082
-19731
-19016
-18938
-19146
-18626
-17821
-17665
-17860
-17418
-16625
-16508
-16729
-16352
-15703
-15807
-16404
-16469
-16365
-17054
-18068
-18458
-18522
-19224
-20173
-20381
-20225
-20654
-21342
-21316
-20952
-21225
-21784
-21628
-21160
-21342
-21823
-21615
-21147
-21316
-21771
-21589
-21095
-21264
-21732
-21511
-21017
-21199
-21680
-21498
-20991
-21173
-21680
-21498
-21017
-21212
-21693
-21550
-21082
-21251
-21758
-21628
-21160
-21329
-21836
-21706
-21251
-21420
-21927
-21784
-21316
-21524
-22031
-21849
-21381
-21576
-22057
-21901
-21459
-21641
-22122
-21940
-21472
-21654
-22122
-21966
-21511
-21680
-22148
-21992
-21485
-21654
-22148
-21914
-21433
-21654
-22096
-21940
-21498
-21654
-22161
-21979
-21485
-21680
-22161
-22005
-21537
-21706
-22161
-21979
-21485
-21654
-22135
-21940
-21459
-21654
-22122
-21940
-21472
-21654
-22148
-21992
-21511
-21680
-22161
-21979
-21485
-21693
-22213
-22031
-21550
-21732
-22200
-22018
-21537
-21719
-22161
-21979
-21472
-21641
-22135
-21927
-21446
-21524
-21745
-21342
-20718
-20978
-21433
-21069
-20563
-20524
-20718
-20459
-19978
-20329
-20913
-20679
-20563
-21407
-22174
-22070
-21680
-21901
-22395
-22304
-21927
-22122
-22577
-22252
-21719
-22356
-23356
-22746
-19874
-15274
-9050
-2579
-1188
-6386
-12571
-16184
-17522
-18613
-19913
-20290
-20329
-20861
-21550
-21563
-21225
-21472
-21940
-21745
-21251
-21446
-21953
-21719
-21160
-21407
-21914
-21641
-21082
-21186
-21615
-21446
-20991
-21121
-21563
-21342
-20796
-20926
-21368
-21121
-20550
-20576
-20978
-20757
-20225
-20329
-20667
-20342
-19718
-19822
-20199
-19744
-18964
-18899
-19107
-18626
-17808
-17717
-17886
-17353
-16599
-16482
-16742
-16404
-15807
-15937
-16456
-16482
-16456
-17158
-18211
-18704
-18743
-19341
-20290
-20498
-20290
-20731
-21433
-21459
-21147
-21459
-22031
-21823
-21316
-21576
-22096
-21901
-21433
-21602
-22083
-21823
-21264
-21498
-21966
-21771
-21316
-21472
-21940
-21745
-21277
-21498
-22109
-21992
-21407
-21524
-22031
-21875
-21446
-21615
-22083
-21953
-21511
-21732
-22213
-22057
-21680
-21901
-22421
-22304
-21797
-21966
-22499
-22278
-21719
-21927
-22447
-22330
-21862
-22031
-22564
-22473
-21979
-22200
-22759
-22447
-21862
-22174
-22746
-22460
-21992
-22226
-22707
-22590
-22018
-22187
-22772
-22629
-22187
-22421
-22901
-22616
-22096
-22330
-22824
-22616
-22148
-22460
-22979
-22707
-22200
-22421
-22914
-22785
-22304
-22525
-23044
-22785
-22304
-22538
-23083
-22888
-22330
-22538
-23083
-22862
-22343
-22512
-22940
-22720
-22304
-22564
-22992
-22642
-21940
-21901
-22317
-22252
-21706
-21719
-22018
-21511
-20991
-21186
-21654
-21654
-21082
-21251
-22291
-22642
-22343
-22668
-23278
-23122
-22720
-23031
-23525
-23304
-22772
-22837
-23382
-23694
-23538
-22733
-19991
-14702
-8010
-3579
-5788
-11259
-15274
-18159
-19770
-20355
-20511
-21121
-22057
-22174
-21875
-22213
-22746
-22564
-22122
-22330
-22837
-22629
-22070
-22239
-22694
-22473
-21992
-22161
-22590
-22382
-21836
-21940
-22434
-22213
-21667
-21771
-22200
-22031
-21498
-21537
-21940
-21693
-21121
-21264
-21641
-21277
-20692
-20770
-21082
-20731
-20043
-20017
-20264
-19809
-19055
-18964
-19133
-18626
-17847
-17769
-17925
-17457
-16781
-16781
-17171
-17015
-16664
-17184
-18120
-18445
-18509
-19250
-20290
-20537
-20420
-20978
-21758
-21797
-21511
-21862
-22460
-22317
-21862
-22083
-22551
-22382
-21914
-22096
-22564
-22369
-21901
-22057
-22538
-22382
-21862
-22031
-22486
-22252
-21771
-21966
-22460
-22304
-21797
-21979
-22460
-22291
-21836
-22031
-22564
-22356
-21888
-22109
-22577
-22421
-21992
-22174
-22668
-22486
-22031
-22278
-22746
-22564
-22109
-22343
-22824
-22616
-22161
-22356
-22785
-22629
-22174
-22382
-22901
-22694
-22213
-22434
-22888
-22707
-22265
-22434
-22914
-22733
-22252
-22460
-22979
-22811
-22330
-22512
-22979
-22785
-22304
-22512
-22992
-22811
-22317
-22486
-22966
-22772
-22291
-22499
-22992
-22785
-22304
-22499
-22953
-22746
-22278
-22486
-22940
-22733
-22252
-22460
-22927
-22694
-22200
-22395
-22837
-22460
-21706
-21693
-22135
-21992
-21355
-21472
-21849
-21316
-20705
-20913
-21498
-21472
-20913
-21173
-22291
-22577
-22187
-22499
-23070
-22927
-22525
-22785
-23278
-23057
-22486
-22590
-23252
-23616
-23200
-21849
-18535
-12389
-5009
-1500
-4944
-10752
-14975
-17795
-19393
-20043
-20199
-20900
-21836
-21901
-21602
-21888
-22434
-22291
-21849
-22057
-22512
-22304
-21823
-21966
-22434
-22226
-21693
-21862
-22330
-22109
-21576
-21706
-22148
-21875
-21342
-21498
-21914
-21654
-21095
-21238
-21667
-21381
-20822
-20900
-21290
-21004
-20394
-20433
-20770
-20407
-19718
-19692
-19926
-19471
-18717
-18613
-18743
-18211
-17457
-17392
-17587
-17119
-16404
-16417
-16794
-16677
-16404
-16950
-17938
-18289
-18367
-19133
-20147
-20407
-20316
-20874
-21654
-21667
-21342
-21680
-22239
-22096
-21667
-21901
-22395
-22213
-21719
-21901
-22382
-22161
-21693
-21875
-22317
-22109
-21615
-21797
-22278
-22083
-21576
-21758
-22239
-22031
-21563
-21771
-22265
-22096
-21628
-21836
-22343
-22174
-21719
-21940
-22434
-22278
-21810
-21992
-22512
-22343
-21849
-22057
-22551
-22356
-21927
-22161
-22629
-22499
-22031
-22213
-22720
-22525
-22070
-22291
-22772
-22577
-22109
-22304
-22811
-22629
-22135
-22356
-22837
-22616
-22161
-22356
-22849
-22642
-22174
-22382
-22837
-22642
-22174
-22369
-22862
-22681
-22174
-22369
-22888
-22681
-22213
-22408
-22875
-22694
-22213
-22382
-22875
-22655
-22187
-22395
-22862
-22681
-22213
-22382
-22837
-22642
-22148
-22278
-22590
-22135
-21420
-21563
-22109
-21797
-21251
-21355
-21498
-21121
-20628
-20926
-21602
-21368
-20926
-21628
-22655
-22590
-22187
-22512
-23031
-22875
-22447
-22681
-23174
-22888
-22291
-22668
-23707
-23759
-22005
-18691
-13364
-6035
-1085
-3475
-9933
-14806
-17275
-18730
-20069
-20563
-20602
-21277
-22044
-22031
-21680
-21927
-22460
-22291
-21823
-22005
-22486
-22278
-21745
-21914
-22356
-22161
-21654
-21784
-22239
-21979
-21485
-21654
-22096
-21875
-21368
-21498
-21901
-21654
-21095
-21199
-21615
-21368
-20770
-20835
-21199
-20874
-20303
-20368
-20628
-20238
-19575
-19549
-19770
-19237
-18445
-18328
-18484
-17990
-17145
-17028
-17301
-16924
-16236
-16314
-16807
-16846
-16781
-17444
-18484
-18886
-18938
-19666
-20602
-20796
-20628
-21121
-21901
-21875
-21498
-21758
-22317
-22161
-21680
-21888
-22382
-22187
-21693
-21914
-22395
-22174
-21745
-21979
-22369
-22057
-21550
-21745
-22343
-22213
-21615
-21823
-22330
-22109
-21628
-21771
-22304
-22148
-21667
-21901
-22408
-22252
-21836
-22083
-22603
-22447
-21914
-22083
-22616
-22473
-21992
-22252
-22720
-22512
-22070
-22278
-22772
-22655
-22200
-22317
-22798
-22655
-22226
-22447
-22901
-22733
-22252
-22460
-22992
-22824
-22291
-22460
-23044
-22888
-22304
-22486
-23018
-22849
-22421
-22616
-23083
-22927
-22421
-22603
-23135
-22979
-22525
-22759
-23239
-22992
-22460
-22694
-23252
-23057
-22512
-22720
-23187
-22979
-22525
-22733
-23226
-23018
-22603
-22811
-22992
-22499
-21810
-21953
-22525
-22239
-21732
-21784
-21927
-21732
-21199
-21368
-22044
-21836
-21537
-22356
-23213
-23135
-22785
-23044
-23629
-23525
-23096
-23382
-23889
-23538
-22875
-23317
-24370
-24292
-22265
-18613
-13572
-6984
-3203
-6698
-12896
-16820
-18484
-19679
-21082
-21498
-21472
-22018
-22707
-22849
-22512
-22551
-22992
-22901
-22499
-22707
-23161
-22862
-22447
-22720
-23122
-22837
-22252
-22473
-22992
-22681
-22187
-22408
-22798
-22603
-22122
-22096
-22421
-22291
-21810
-21992
-22356
-22031
-21602
-21693
-22018
-21641
-20952
-20991
-21251
-20900
-20173
-20147
-20472
-20069
-19354
-19172
-19263
-18873
-18068
-17925
-18224
-17899
-17249
-17353
-17938
-18042
-17964
-18626
-19653
-19926
-19952
-20692
-21602
-21732
-21563
-22057
-22746
-22681
-22304
-22616
-23161
-23005
-22525
-22733
-23252
-23083
-22551
-22746
-23213
-23031
-22577
-22720
-23174
-22953
-22460
-22707
-23200
-23044
-22538
-22668
-23161
-22992
-22512
-22733
-23213
-23044
-22590
-22733
-23278
-23161
-22655
-22837
-23330
-23200
-22772
-22940
-23447
-23330
-22888
-23096
-23577
-23408
-22940
-23135
-23590
-23421
-22992
-23161
-23668
-23538
-23005
-23187
-23720
-23577
-23070
-23200
-23707
-23551
-23044
-23239
-23707
-23499
-23018
-23226
-23720
-23486
-22927
-23109
-23694
-23408
-22629
-22590
-22953
-22837
-22356
-22356
-22798
-22382
-21576
-21719
-22200
-22135
-21758
-21888
-22681
-23148
-23044
-23304
-23915
-23798
-23291
-23538
-24175
-24032
-23460
-23512
-23889
-23941
-23954
-24227
-23239
-19406
-13429
-7036
-3761
-6542
-11909
-16495
-19445
-20290
-20589
-21355
-22330
-22603
-22356
-22720
-23304
-23174
-22746
-22953
-23434
-23239
-22746
-22927
-23356
-23135
-22642
-22811
-23265
-23005
-22447
-22642
-23096
-22849
-22317
-22447
-22901
-22629
-22070
-22239
-22655
-22369
-21810
-21888
-22278
-22005
-21420
-21472
-21862
-21576
-20887
-20848
-21121
-20679
-19887
-19757
-19952
-19471
-18691
-18535
-18704
-18211
-17457
-17457
-17795
-17600
-17301
-17795
-18717
-19055
-19133
-19874
-20900
-21186
-21147
-21680
-22408
-22473
-22174
-22460
-23018
-22901
-22499
-22720
-23226
-23070
-22577
-22785
-23265
-23018
-22551
-22733
-23161
-22940
-22408
-22564
-23044
-22875
-22382
-22538
-23018
-22862
-22356
-22538
-23044
-22862
-22395
-22590
-23096
-22940
-22486
-22681
-23200
-23031
-22551
-22733
-23252
-23096
-22616
-22811
-23304
-23148
-22668
-22837
-23369
-23213
-22746
-22927
-23434
-23265
-22772
-22966
-23434
-23252
-22811
-22979
-23460
-23278
-22824
-23044
-23512
-23317
-22837
-23044
-23551
-23343
-22837
-23044
-23551
-23356
-22862
-23044
-23564
-23369
-22888
-23096
-23564
-23343
-22875
-23070
-23551
-23382
-22888
-23083
-23577
-23382
-22927
-23109
-23590
-23408
-22914
-23109
-23629
-23434
-22914
-23109
-23616
-23421
-22927
-23122
-23629
-23421
-22953
-23135
-23603
-23447
-22966
-23161
-23642
-23460
-22992
-23174
-23668
-23447
-22940
-23135
-23603
-23291
-22538
-22538
-22927
-22720
-22239
-22291
-22707
-22278
-21511
-21654
-22226
-22213
-21771
-21953
-22785
-23161
-22979
-23213
-23811
-23707
-23239
-23499
-24019
-23798
-23265
-23317
-23876
-24201
-24019
-23239
-20602
-15001
-7530
-2371
-3839
-9401
-14364
-17938
-19900
-20563
-20757
-21485
-22525
-22681
-22369
-22681
-23226
-23109
-22655
-22837
-23330
-23161
-22655
-22811
-23291
-23083
-22551
-22733
-23174
-22940
-22434
-22590
-23044
-22824
-22265
-22421
-22875
-22629
-22096
-22239
-22655
-22395
-21823
-21914
-22304
-22018
-21407
-21446
-21797
-21459
-20757
-20731
-21017
-20537
-19731
-19627
-19809
-19276
-18497
-18380
-18574
-18107
-17366
-17379
-17769
-17639
-17327
-17834
-18795
-19172
-19250
-19978
-20978
-21264
-21225
-21758
-22512
-22577
-22265
-22577
-23174
-23031
-22577
-22811
-23304
-23109
-22642
-22837
-23304
-23109
-22603
-22785
-23265
-23031
-22525
-22707
-23174
-22979
-22486
-22694
-23148
-22966
-22512
-22707
-23200
-23044
-22564
-22785
-23291
-23096
-22616
-22837
-23343
-23174
-22720
-22940
-23447
-23304
-22824
-23044
-23564
-23369
-22914
-23096
-23551
-23369
-22888
-23135
-23681
-23499
-23018
-23148
-23629
-23499
-23005
-23226
-23759
-23577
-23070
-23278
-23746
-23538
-23122
-23330
-23837
-23668
-23187
-23382
-23850
-23707
-23239
-23395
-23902
-23668
-23174
-23369
-23837
-23720
-23291
-23460
-23967
-23746
-23226
-23395
-23850
-23668
-23200
-23395
-23941
-23785
-23343
-23525
-23967
-23798
-23252
-23486
-24032
-23811
-23343
-23499
-23954
-23772
-23278
-23460
-23980
-23811
-23304
-23512
-24058
-23850
-23317
-23564
-24084
-23863
-23330
-23499
-24045
-23889
-23369
-23512
-23928
-23733
-23304
-23499
-24045
-23863
-23252
-23330
-23668
-23239
-22642
-22914
-23330
-23083
-22499
-22304
-22681
-22460
-21927
-22317
-22837
-22733
-22798
-23499
-24149
-24084
-23616
-23798
-24461
-24331
-23798
-24045
-24409
-24071
-23850
-24604
-25188
-23525
-19263
-13780
-7789
-4138
-6776
-12701
-17431
-19666
-20277
-21368
-22395
-22616
-22551
-22953
-23616
-23525
-23213
-23486
-23824
-23668
-23291
-23421
-23993
-23811
-23135
-23291
-23759
-23577
-23109
-23265
-23668
-23369
-22940
-23174
-23629
-23356
-22733
-22901
-23239
-22914
-22421
-22564
-23057
-22849
-22395
-22395
-22486
-22109
-21537
-21654
-22070
-21667
-20835
-20667
-20939
-20511
-19653
-19523
-19796
-19367
-18600
-18535
-18769
-18432
-17886
-18146
-18860
-19029
-19094
-19770
-20718
-21173
-21212
-21888
-22824
-22837
-22577
-22979
-23629
-23668
-23265
-23421
-23928
-23876
-23564
-23694
-24058
-23811
-23382
-23616
-24084
-23902
-23304
-23486
-24045
-23759
-23356
-23629
-24006
-23720
-23213
-23447
-23980
-23863
-23408
-23551
-24045
-23837
-23330
-23460
-23954
-23980
-23486
-23551
-24188
-24006
-23473
-23759
-24201
-23980
-23655
-23941
-24370
-24110
-23577
-23811
-24396
-24214
-23720
-23967
-24474
-24305
-23811
-24006
-24591
-24409
-23811
-23980
-24500
-24305
-23798
-24058
-24630
-24435
-23876
-24097
-24643
-24435
-23993
-24227
-24656
-24448
-23967
-24071
-24591
-24500
-24019
-24162
-24617
-24435
-23941
-24110
-24630
-24435
-23967
-24188
-24656
-24461
-23980
-24149
-24604
-24422
-23967
-24149
-24591
-24383
-23824
-23785
-24058
-23720
-23187
-23369
-23681
-23473
-22875
-22733
-23135
-22888
-22564
-22979
-23265
-23226
-23343
-23902
-24565
-24487
-24084
-24344
-24851
-24669
-24201
-24357
-24721
-24513
-24344
-25019
-25292
-23005
-18198
-12454
-6724
-4632
-8517
-14299
-18639
-20446
-20783
-21719
-22798
-23096
-22914
-23317
-24032
-23928
-23447
-23655
-24110
-23902
-23421
-23616
-24110
-23863
-23317
-23473
-23941
-23772
-23330
-23460
-23837
-23603
-23031
-23161
-23603
-23356
-22811
-22927
-23356
-23135
-22564
-22655
-23044
-22798
-22252
-22291
-22616
-22278
-21615
-21615
-21940
-21511
-20718
-20641
-20822
-20316
-19510
-19380
-19588
-19107
-18315
-18237
-18535
-18224
-17691
-17964
-18756
-19055
-19081
-19848
-20926
-21251
-21277
-21914
-22759
-22875
-22616
-23018
-23681
-23564
-23148
-23395
-23928
-23811
-23317
-23486
-24006
-23824
-23343
-23525
-23993
-23798
-23265
-23447
-23928
-23733
-23213
-23369
-23837
-23642
-23148
-23343
-23876
-23668
-23148
-23343
-23824
-23616
-23161
-23356
-23837
-23694
-23213
-23421
-23941
-23733
-23265
-23499
-23980
-23811
-23343
-23538
-24045
-23902
-23434
-23590
-24110
-23967
-23460
-23655
-24149
-23915
-23447
-23681
-24149
-23954
-23486
-23668
-24136
-23967
-23512
-23681
-24162
-23993
-23486
-23720
-24240
-24019
-23538
-23733
-24227
-24045
-23551
-23746
-24227
-23993
-23512
-23733
-24214
-24058
-23577
-23720
-24201
-24032
-23551
-23759
-24253
-24071
-23603
-23798
-24279
-24084
-23577
-23759
-24266
-24071
-23603
-23811
-24266
-24084
-23629
-23785
-24253
-24084
-23603
-23811
-24305
-24084
-23616
-23850
-24318
-24136
-23642
-23798
-24318
-24136
-23642
-23837
-24292
-24123
-23642
-23811
-24318
-24123
-23642
-23811
-24279
-24110
-23486
-23408
-23733
-23434
-22966
-23161
-23486
-23265
-22564
-22499
-22966
-22811
-22486
-22746
-23174
-23265
-23382
-23876
-24448
-24383
-23928
-24136
-24734
-24565
-24058
-24162
-24500
-24461
-24487
-24929
-24292
-20809
-14832
-8101
-3553
-4710
-10024
-15534
-19250
-20485
-20822
-21641
-22681
-22979
-22798
-23200
-23798
-23681
-23252
-23447
-23941
-23733
-23239
-23408
-23850
-23642
-23122
-23278
-23733
-23538
-23031
-23174
-23629
-23395
-22849
-22979
-23434
-23187
-22668
-22785
-23174
-22914
-22369
-22473
-22862
-22577
-21992
-22031
-22356
-22044
-21394
-21368
-21641
-21199
-20433
-20342
-20511
-19991
-19159
-19003
-19172
-18704
-17938
-17860
-18159
-17873
-17392
-17743
-18548
-18834
-18873
-19640
-20705
-21030
-21030
-21628
-22486
-22642
-22382
-22759
-23395
-23265
-22862
-23109
-23616
-23447
-22966
-23148
-23616
-23421
-22927
-23109
-23564
-23343
-22862
-23031
-23512
-23317
-22785
-22966
-23447
-23265
-22759
-22927
-23460
-23291
-22824
-23031
-23525
-23356
-22888
-23070
-23590
-23408
-22927
-23135
-23642
-23512
-23057
-23265
-23785
-23629
-23135
-23330
-23863
-23668
-23174
-23382
-23863
-23720
-23239
-23447
-23941
-23759
-23291
-23486
-24006
-23824
-23317
-23486
-23967
-23785
-23317
-23512
-24006
-23837
-23369
-23564
-24045
-23850
-23369
-23577
-24058
-23876
-23382
-23551
-24058
-23889
-23434
-23629
-24110
-23876
-23343
-23603
-24123
-23941
-23447
-23577
-24084
-23928
-23408
-23577
-24071
-23902
-23486
-23746
-24175
-23954
-23499
-23694
-24162
-23980
-23538
-23759
-24279
-24032
-23512
-23733
-24188
-23993
-23525
-23720
-24227
-24058
-23538
-23785
-24279
-24019
-23590
-23798
-24266
-24110
-23629
-23798
-24240
-24136
-23642
-23733
-24214
-24045
-23551
-23746
-24214
-23837
-23057
-23122
