# aauwss ecg epoch, one sample per line
# source AAUWSS (Aalborg University Wearable Sleep Study) v1.1, Zenodo 10.5281/zenodo.16919071
# licence CC-BY-4.0 - Djanian S, Nielsen T D, Nielsen S H, Bruun A (2025)
# subject 03
# fs_hz 200.0
# samples 6000
# scale 0.1  (value = count * scale, arbitrary published units, NOT mV)
# source_row 465 of 931
# stage_label N1
# epoch 466.0
-132913
-133318
-132943
-132508
-132643
-132883
-132598
-132223
-132568
-132943
-132523
-131864
-131864
-132298
-132088
-131534
-131639
-131908
-131459
-130844
-130919
-131264
-130949
-130454
-130844
-131489
-131399
-131114
-131624
-132418
-132478
-132148
-132538
-133213
-133123
-132808
-133078
-133573
-133408
-132883
-133183
-133738
-133438
-132868
-133078
-133648
-133348
-132793
-133108
-133588
-133288
-132718
-133033
-133693
-133423
-132913
-133093
-133558
-133453
-132988
-133168
-133678
-133468
-133033
-133318
-133813
-133648
-133183
-133393
-133993
-133783
-133243
-133513
-134008
-133708
-133168
-133228
-133483
-133108
-132553
-132808
-133078
-132433
-131789
-132073
-132658
-132493
-132058
-132328
-132823
-133003
-132973
-133318
-134038
-134067
-133633
-134008
-134667
-134382
-133888
-134172
-134742
-134517
-134053
-134277
-134637
-134682
-134937
-135387
-135297
-133768
-130709
-127171
-122433
-117095
-112972
-113092
-120289
-127501
-131009
-133558
-134412
-134622
-134862
-134832
-135057
-134577
-133768
-133993
-134622
-134427
-133858
-134023
-134457
-134217
-133663
-133813
-134352
-134112
-133588
-133783
-134217
-133918
-133348
-133543
-134038
-133768
-133228
-133438
-133828
-133573
-133048
-133138
-133648
-133363
-132628
-132718
-133168
-132868
-132223
-132283
-132598
-132193
-131639
-131699
-132118
-132043
-131594
-131968
-132733
-132748
-132478
-132883
-133633
-133663
-133348
-133738
-134412
-134352
-133873
-134157
-134727
-134517
-133993
-134172
-134727
-134547
-134008
-134232
-134682
-134442
-133978
-134157
-134667
-134472
-133948
-134127
-134682
-134532
-133993
-134202
-134712
-134532
-134097
-134367
-134907
-134757
-134187
-134367
-135042
-134877
-134367
-134547
-135147
-135027
-134517
-134772
-135192
-134937
-134247
-134142
-134592
-134427
-134008
-134023
-134053
-133603
-133153
-133468
-134038
-133978
-133408
-133543
-134457
-134727
-134472
-134907
-135687
-135567
-135102
-135432
-135927
-135747
-135222
-135477
-136122
-135912
-135417
-135447
-136002
-136496
-136436
-136346
-136032
-133783
-130019
-125776
-120904
-116600
-114022
-117845
-126466
-131459
-133588
-135087
-135897
-136406
-136227
-136092
-136301
-135792
-135117
-135387
-135942
-135807
-135222
-135357
-135822
-135507
-134982
-135162
-135687
-135462
-134877
-135087
-135522
-135267
-134757
-134862
-135357
-135147
-134577
-134682
-135072
-134877
-134307
-134337
-134802
-134517
-133858
-133993
-134427
-134187
-133483
-133453
-133843
-133408
-132733
-132853
-133348
-133228
-132853
-133348
-134097
-134127
-133963
-134367
-135042
-135102
-134727
-134982
-135657
-135567
-135102
-135372
-135882
-135732
-135207
-135357
-135927
-135762
-135177
-135282
-135762
-135627
-135117
-135297
-135777
-135612
-135147
-135237
-135717
-135657
-135177
-135387
-136002
-135822
-135267
-135447
-135957
-135822
-135387
-135597
-136167
-136017
-135522
-135807
-136361
-136182
-135597
-135642
-136242
-136047
-135297
-135237
-135597
-135537
-135027
-134787
-134862
-134622
-134187
-134322
-134922
-134892
-134457
-134727
-135597
-135777
-135402
-135777
-136466
-136421
-136062
-136271
-136826
-136721
-136122
-136242
-136901
-136811
-136182
-136286
-137006
-137351
-137021
-136766
-136212
-133678
-129809
-125222
-120424
-116690
-115131
-120214
-128655
-132988
-134607
-135777
-136871
-137321
-136826
-136631
-136946
-136496
-135837
-136167
-136601
-136346
-135837
-135882
-136376
-136227
-135627
-135732
-136212
-135987
-135357
-135462
-136017
-135822
-135252
-135297
-135747
-135612
-135042
-135132
-135597
-135327
-134682
-134757
-135282
-135027
-134352
-134397
-134742
-134487
-133843
-133798
-134172
-133903
-133243
-133333
-133828
-133738
-133363
-133648
-134412
-134502
-134097
-134442
-135222
-135192
-134802
-135117
-135747
-135642
-135117
-135282
-135822
-135687
-135102
-135207
-135762
-135597
-134997
-135117
-135717
-135567
-134967
-135087
-135597
-135417
-134832
-134997
-135522
-135357
-134862
-135012
-135537
-135432
-134922
-135057
-135642
-135537
-134937
-135147
-135777
-135672
-135162
-135282
-135792
-135687
-135192
-135327
-135852
-135657
-135012
-134937
-135222
-134937
-134397
-134592
-134862
-134217
-133408
-133618
-134322
-134232
-133813
-133993
-134502
-134697
-134562
-134907
-135657
-135687
-135252
-135462
-136092
-135957
-135372
-135492
-136092
-136002
-135462
-135612
-136152
-136107
-136107
-136676
-136841
-135822
-133153
-129974
-125986
-120349
-115476
-113197
-117515
-125896
-131009
-134157
-135747
-135702
-135852
-136047
-136212
-135852
-135012
-135057
-135672
-135507
-134922
-134967
-135477
-135372
-134802
-134862
-135297
-135147
-134592
-134652
-135147
-134967
-134367
-134442
-134922
-134787
-134157
-134142
-134667
-134487
-133813
-133843
-134277
-134082
-133438
-133453
-133858
-133558
-132838
-132778
-133138
-132838
-132163
-132118
-132583
-132433
-131968
-132253
-132943
-133168
-132958
-133273
-134097
-134247
-133828
-134157
-134892
-134847
-134382
-134562
-135117
-135057
-134532
-134622
-135192
-135072
-134487
-134562
-135087
-134952
-134427
-134517
-134952
-134832
-134322
-134427
-134997
-134877
-134292
-134427
-134952
-134847
-134337
-134442
-134997
-134922
-134367
-134442
-135012
-134952
-134412
-134532
-135102
-135057
-134562
-134652
-135222
-135192
-134637
-134742
-135342
-135222
-134607
-134712
-135312
-135132
-134502
-134412
-134697
-134457
-133918
-134082
-134367
-133723
-132898
-133123
-133798
-133768
-133258
-133393
-133978
-134187
-134067
-134397
-135162
-135282
-134892
-135042
-135597
-135537
-134982
-135102
-135732
-135702
-135162
-135252
-135732
-135642
-135582
-136197
-136556
-135732
-133408
-130499
-126826
-121203
-116061
-113197
-116016
-123977
-129690
-133198
-135282
-135312
-135417
-135777
-136062
-135747
-134907
-134862
-135432
-135297
-134757
-134772
-135267
-135177
-134562
-134592
-135132
-135012
-134442
-134487
-134937
-134802
-134247
-134292
-134742
-134622
-134067
-134067
-134607
-134442
-133738
-133798
-134247
-134067
-133468
-133408
-133828
-133633
-132898
-132853
-133258
-132988
-132268
-132178
-132628
-132508
-131953
-132133
-132898
-133033
-132718
-133063
-133888
-134053
-133708
-133993
-134697
-134802
-134367
-134457
-135042
-135012
-134517
-134607
-135132
-135057
-134502
-134547
-135102
-135027
-134442
-134517
-135012
-134877
-134352
-134382
-134907
-134847
-134262
-134367
-134937
-134877
-134337
-134382
-134937
-134907
-134367
-134457
-135042
-134997
-134472
-134577
-135117
-135057
-134532
-134622
-135222
-135177
-134592
-134622
-135222
-135222
-134667
-134742
-135297
-135282
-134757
-134787
-135357
-135357
-134832
-134877
-135387
-135312
-134787
-134847
-135417
-135417
-134862
-134907
-135492
-135477
-134862
-134892
-135477
-135402
-134802
-134622
-134892
-134727
-134187
-134322
-134562
-133963
-133303
-133453
-134097
-134112
-133588
-133693
-134292
-134607
-134442
-134697
-135492
-135627
-135192
-135312
-135852
-135852
-135387
-135447
-136017
-136092
-135567
-135567
-136092
-136137
-136122
-136586
-136841
-135987
-133393
-130094
-126091
-120529
-115506
-113062
-117020
-125177
-130424
-133768
-135552
-135582
-135702
-135897
-136167
-135987
-135222
-135147
-135777
-135762
-135147
-135162
-135672
-135597
-135012
-134982
-135492
-135432
-134862
-134862
-135372
-135282
-134682
-134637
-135162
-135087
-134442
-134472
-135027
-134892
-134262
-134247
-134712
-134592
-133963
-133903
-134322
-134202
-133528
-133333
-133783
-133558
-132808
-132778
-133153
-133063
-132553
-132598
-133288
-133468
-133168
-133453
-134247
-134502
-134172
-134367
-135117
-135252
-134772
-134817
-135402
-135432
-134937
-134982
-135522
-135492
-134967
-134952
-135492
-135522
-134952
-134892
-135432
-135417
-134847
-134847
-135432
-135447
-134862
-134862
-135447
-135462
-134922
-134952
-135522
-135522
-134952
-134982
-135597
-135627
-135102
-135102
-135702
-135762
-135207
-135237
-135822
-135867
-135387
-135402
-135987
-136017
-135462
-135507
-136092
-136107
-135597
-135597
-136152
-136212
-135687
-135717
-136271
-136256
-135777
-135822
-136361
-136361
-135852
-135897
-136481
-136481
-135942
-135942
-136496
-136571
-136017
-135957
-136571
-136601
-136047
-136047
-136571
-136601
-136032
-136032
-136661
-136661
-136137
-136167
-136676
-136706
-136182
-136182
-136751
-136766
-136182
-136197
-136766
-136766
-136212
-136227
-136811
-136796
-136212
-136182
-136706
-136691
-136077
-135867
-136212
-136137
-135582
-135492
-135657
-135282
-134787
-134937
-135537
-135567
-135087
-135222
-135822
-136062
-135867
-136092
-136796
-136976
-136526
-136511
-137066
-137126
-136586
-136586
-137186
-137261
-136721
-136661
-137171
-137546
-137621
-137606
-137486
-136077
-132763
-128925
-124187
-119074
-114876
-114801
-122148
-129809
-133588
-135912
-136736
-137111
-137096
-136931
-137321
-137231
-136511
-136466
-137111
-137141
-136526
-136481
-137021
-137036
-136451
-136346
-136856
-136871
-136271
-136212
-136706
-136691
-136152
-136092
-136586
-136586
-136002
-135942
-136451
-136436
-135792
-135687
-136227
-136137
-135462
-135417
-135897
-135792
-135117
-134967
-135342
-135237
-134577
-134397
-134802
-134772
-134202
-134202
-134892
-135132
-134772
-134997
-135792
-136062
-135717
-135882
-136631
-136781
-136361
-136361
-136991
-137156
-136601
-136601
-137186
-137216
-136676
-136616
-137141
-137186
-136646
-136571
-137111
-137156
-136601
-136556
-137096
-137141
-136616
-136571
-137066
-137126
-136601
-136571
-137186
-137246
-136721
-136721
-137291
-137396
-136901
-136856
-137471
-137576
-137021
-137021
-137681
-137771
-137201
-137171
-137801
-137861
-137276
-137276
-137921
-137996
-137471
-137441
-137951
-138071
-137531
-137471
-138101
-138131
-137636
-137636
-138176
-138236
-137681
-137591
-138191
-138266
-137756
-137801
-138251
-138311
-137801
-137711
-138326
-138416
-137891
-137801
-138326
-138431
-137906
-137861
-138386
-138445
-137951
-137906
-138460
-138595
-138086
-138041
-138550
-138520
-137981
-137921
-138371
-138266
-137561
-137411
-137981
-137996
-136976
-136556
-137186
-137366
-136916
-136871
-137531
-137666
-137201
-137441
-138296
-138640
-138206
-138266
-138955
-139030
-138520
-138475
-139045
-139195
-138760
-138670
-139180
-139225
-138655
-139030
-140125
-140050
-138820
-137051
-134682
-131009
-125237
-120409
-117785
-118385
-124997
-132118
-136256
-138341
-138176
-138535
-139720
-139720
-138955
-138715
-139045
-139180
-138730
-138655
-139240
-139240
-138625
-138505
-139015
-139165
-138610
-138490
-139000
-139000
-138445
-138326
-138835
-138955
-138341
-138086
-138595
-138640
-138041
-137951
-138401
-138431
-137801
-137561
-138026
-138131
-137546
-137261
-137606
-137531
-136826
-136601
-137036
-137006
-136286
-136152
-136826
-137126
-136751
-136796
-137651
-138101
-137711
-137786
-138610
-138985
-138640
-138595
-139195
-139405
-138955
-138910
-139480
-139660
-139135
-139030
-139585
-139660
-139090
-138970
-139540
-139690
-139105
-138895
-139435
-139570
-138985
-138880
-139435
-139570
-139090
-138970
-139525
-139630
-139045
-139000
-139615
-139720
-139210
-139105
-139675
-139870
-139330
-139255
-139840
-140035
-139540
-139375
-139900
-140080
-139555
-139435
-140035
-140200
-139660
-139570
-140095
-140200
-139705
-139600
-140185
-140380
-139840
-139705
-140245
-140350
-139780
-139675
-140200
-140290
-139795
-139690
-140215
-140365
-139840
-139720
-140260
-140380
-139795
-139690
-140245
-140350
-139810
-139660
-140215
-140350
-139795
-139660
-140125
-140185
-139585
-139255
-139570
-139645
-139135
-138835
-138910
-138685
-138236
-138176
-138730
-138940
-138460
-138386
-139060
-139465
-139165
-139225
-139930
-140200
-139750
-139615
-140170
-140305
-139780
-139720
-140245
-140350
-139810
-139600
-140170
-140829
-140754
-140290
-139960
-138176
-134427
-130004
-125012
-120469
-116960
-118640
-127201
-134172
-137051
-138475
-139195
-139930
-139840
-139480
-139855
-139810
-139075
-138985
-139570
-139645
-139045
-138835
-139360
-139435
-138865
-138715
-139180
-139300
-138715
-138490
-138985
-139045
-138431
-138251
-138700
-138835
-138251
-137996
-138445
-138520
-137906
-137666
-138101
-138101
-137411
-137141
-137486
-137486
-136841
-136496
-136796
-136811
-136167
-135837
-136271
-136421
-135942
-135957
-136706
-137111
-136901
-137021
-137801
-138221
-137906
-137891
-138565
-138835
-138386
-138296
-138865
-139090
-138610
-138416
-138970
-139150
-138565
-138416
-138940
-139075
-138535
-138311
-138835
-138985
-138401
-138221
-138715
-138880
-138371
-138161
-138670
-138850
-138296
-138116
-138670
-138850
-138326
-138176
-138745
-138940
-138445
-138296
-138880
-139060
-138550
-138475
-139045
-139165
-138640
-138520
-139090
-139240
-138715
-138610
-139150
-139300
-138745
-138595
-139195
-139345
-138745
-138595
-139165
-139315
-138805
-138685
-139210
-139360
-138820
-138655
-139210
-139330
-138775
-138640
-139180
-139375
-138835
-138670
-139225
-139360
-138760
-138625
-139105
-139030
-138266
-137966
-138490
-138700
-137786
-137126
-137546
-137756
-137291
-137216
-137771
-137951
-137471
-137681
-138580
-138895
-138595
-138655
-139285
-139480
-138955
-138835
-139390
-139555
-139060
-138880
-139450
-139585
-138970
-139150
-140335
-140590
-139420
-137846
-135627
-131953
-126181
-120754
-117440
-116825
-122508
-130529
-135807
-138460
-138356
-138445
-139660
-139795
-139045
-138700
-139030
-139150
-138655
-138505
-139000
-139075
-138505
-138311
-138775
-138880
-138326
-138086
-138565
-138670
-138086
-137876
-138356
-138490
-137906
-137636
-138116
-138206
-137591
-137381
-137846
-137861
-137216
-136946
-137306
-137321
-136646
-136361
-136721
-136661
-135972
-135627
-135957
-135972
-135357
-135132
-135717
-136062
-135762
-135882
-136751
-137261
-136976
-137066
-137846
-138251
-137921
-137861
-138490
-138805
-138296
-138116
-138700
-138895
-138401
-138251
-138760
-138925
-138416
-138236
-138730
-138880
-138326
-138131
-138640
-138790
-138251
-138056
-138565
-138745
-138161
-137966
-138490
-138640
-138101
-137921
-138460
-138670
-138161
-137966
-138520
-138715
-138236
-138116
-138625
-138850
-138326
-138131
-138700
-138910
-138416
-138251
-138760
-138940
-138445
-138281
-138835
-139015
-138490
-138341
-138835
-139015
-138550
-138386
-138895
-139060
-138535
-138386
-138895
-139060
-138595
-138431
-138940
-139120
-138610
-138445
-138940
-139135
-138640
-138445
-138970
-139150
-138640
-138475
-139015
-139150
-138565
-138266
-138505
-138431
-137876
-137771
-138191
-137876
-136946
-136766
-137411
-137726
-137216
-137036
-137546
-137906
-137846
-137906
-138640
-139060
-138670
-138550
-139105
-139330
-138820
-138640
-139165
-139420
-138955
-138730
-139180
-139405
-139405
-139795
-140080
-139465
-137186
-133843
-130124
-124787
-119344
-115806
-117545
-125461
-132178
-135957
-138341
-138670
-138625
-138910
-139255
-139285
-138595
-138206
-138730
-138985
-138460
-138206
-138670
-138850
-138311
-138041
-138505
-138655
-138086
-137801
-138266
-138431
-137876
-137591
-138026
-138206
-137636
-137366
-137816
-137921
-137306
-137021
-137441
-137561
-136916
-136496
-136886
-136946
-136256
-135867
-136152
-136137
-135432
-134982
-135312
-135432
-134877
-134682
-135357
-135852
-135597
-135612
-136406
-136916
-136676
-136691
-137396
-137801
-137441
-137321
-137906
-138176
-137696
-137501
-138011
-138251
-137756
-137516
-138011
-138236
-137681
-137456
-137951
-138131
-137621
-137351
-137801
-138026
-137486
-137216
-137726
-137936
-137411
-137186
-137681
-137906
-137396
-137171
-137666
-137906
-137471
-137201
-137726
-137996
-137501
-137306
-137801
-138086
-137651
-137411
-137921
-138176
-137696
-137441
-137981
-138236
-137726
-137516
-138011
-138251
-137771
-137531
-138056
-138311
-137816
-137576
-138056
-138296
-137816
-137591
-138086
-138341
-137861
-137636
-138131
-138341
-137846
-137636
-138131
-138386
-137936
-137681
-138146
-138356
-137861
-137606
-138041
-138281
-137711
-137306
-137591
-137606
-137066
-136916
-137246
-136931
-136122
-135912
-136481
-136841
-136331
-136077
-136601
-137111
-137051
-137021
-137711
-138176
-137801
-137636
-138191
-138460
-137996
-137771
-138281
-138610
-138146
-137861
-138296
-138550
-138550
-138880
-139210
-138730
-136481
-133093
-129375
-124097
-118655
-115011
-116481
-124292
-131129
-134907
-137381
-137846
-137816
-138041
-138311
-138401
-137741
-137261
-137756
-138056
-137531
-137231
-137651
-137891
-137396
-137051
-137441
-137666
-137141
-136811
-137261
-137426
-136916
-136616
-136991
-137231
-136721
-136376
-136781
-136991
-136436
-136092
-136481
-136661
-136047
-135627
-135927
-136062
-135432
-134967
-135267
-135357
-134682
-134202
-134502
-134667
-134142
-133933
-134577
-135087
-134922
-134937
-135702
-136271
-136077
-136032
-136721
-137201
-136841
-136676
-137246
-137576
-137141
-136856
-137366
-137666
-137186
-136901
-137321
-137591
-137126
-136841
-137276
-137561
-137096
-136781
-137231
-137501
-137051
-136751
-137156
-137441
-136931
-136616
-137081
-137396
-136916
-136586
-137066
-137366
-136901
-136616
-137096
-137426
-136976
-136691
-137186
-137516
-137051
-136766
-137261
-137576
-137141
-136841
-137336
-137666
-137186
-136901
-137366
-137651
-137201
-136961
-137441
-137741
-137261
-136931
-137411
-137726
-137291
-137006
-137411
-137726
-137276
-136976
-137456
-137741
-137276
-136991
-137456
-137801
-137336
-137051
-137501
-137816
-137396
-137066
-137531
-137831
-137351
-137036
-137486
-137831
-137381
-137081
-137501
-137771
-137246
-136751
-136961
-137126
-136706
-136511
-136616
-136346
-135777
-135567
-136122
-136466
-135972
-135702
-136212
-136871
-136796
-136676
-137366
-137831
-137441
-137171
-137666
-138026
-137621
-137336
-137831
-138206
-137786
-137441
-137831
-138341
-138505
-138475
-138445
-137621
-134757
-130829
-126346
-121113
-116436
-114172
-119029
-127770
-132943
-135747
-137141
-137591
-137786
-137606
-137876
-138071
-137426
-137006
-137516
-137891
-137426
-137036
-137396
-137726
-137306
-136871
-137261
-137591
-137081
-136706
-137096
-137336
-136871
-136481
-136811
-137111
-136616
-136212
-136586
-136856
-136331
-135912
-136242
-136466
-135927
-135402
-135642
-135867
-135267
-134727
-134952
-135102
-134517
-133993
-134232
-134457
-134067
-133768
-134352
-134982
-134847
-134802
-135522
-136182
-136017
-135912
-136556
-137081
-136811
-136541
-137021
-137426
-137051
-136721
-137141
-137501
-137096
-136736
-137126
-137441
-136991
-136601
-137021
-137351
-136886
-136511
-136916
-137246
-136826
-136466
-136886
-137216
-136811
-136466
-136856
-137201
-136781
-136436
-136886
-137261
-136826
-136526
-136961
-137291
-136916
-136571
-136991
-137426
-137036
-136646
-137096
-137456
-137036
-136691
-137126
-137561
-137141
-136766
-137216
-137576
-137156
-136811
-137246
-137576
-137141
-136796
-137216
-137606
-137201
-136826
-137231
-137621
-137216
-136826
-137276
-137621
-137156
-136781
-137186
-137561
-137141
-136766
-137171
-137531
-137096
-136766
-137186
-137501
-137051
-136706
-137096
-137411
-136931
-136466
-136661
-136766
-136242
-135927
-136331
-136242
-135312
-134892
-135372
-135807
-135447
-135057
-135462
-135942
-135927
-135912
-136511
-137036
-136781
-136451
-136871
-137306
-136916
-136556
-137006
-137381
-137021
-136691
-137021
-137321
-137231
-137456
-137951
-137756
-136047
-132988
-129600
-124757
-118909
-114546
-113812
-119809
-127635
-132268
-135417
-136481
-136316
-136586
-136961
-137096
-136556
-135957
-136316
-136766
-136316
-135852
-136197
-136556
-136122
-135717
-136047
-136361
-135897
-135417
-135777
-136107
-135627
-135207
-135462
-135762
-135342
-134877
-135207
-135477
-134997
-134532
-134787
-135027
-134487
-133963
-134172
-134412
-133858
-133213
-133438
-133663
-133048
-132478
-132688
-132928
-132433
-132043
-132553
-133123
-132988
-132898
-133618
-134307
-134127
-134023
-134667
-135237
-135027
-134757
-135222
-135657
-135327
-134982
-135372
-135732
-135282
-134892
-135267
-135642
-135267
-134862
-135237
-135642
-135177
-134742
-135162
-135507
-135117
-134712
-134997
-135372
-134997
-134607
-134982
-135417
-135027
-134637
-135027
-135402
-135042
-134622
-135012
-135477
-135132
-134682
-135057
-135552
-135162
-134772
-135162
-135522
-135207
-134847
-135252
-135687
-135327
-134922
-135282
-135672
-135357
-134937
-135252
-135717
-135312
-134892
-135282
-135687
-135372
-134952
-135282
-135717
-135297
-134862
-135267
-135657
-135312
-134952
-135282
-135597
-135282
-134922
-135222
-135552
-135087
-134487
-134652
-134877
-134442
-134112
-134352
-134187
-133483
-133183
-133618
-134082
-133678
-133228
-133678
-134412
-134472
-134292
-134817
-135402
-135192
-134817
-135162
-135642
-135297
-134907
-135342
-135822
-135477
-135027
-135387
-135852
-135882
-135972
-136197
-135822
-133678
-130319
-126646
-121578
-116391
-112852
-114037
-121743
-128565
-131789
-134172
-135027
-135072
-135252
-135522
-135642
-135132
-134517
-134817
-135267
-134877
-134367
-134712
-135207
-134742
-134292
-134682
-134997
-134562
-134053
-134412
-134787
-134307
-133888
-134157
-134457
-134082
-133663
-133918
-134187
-133813
-133318
-133498
-133783
-133273
-132733
-132943
-133138
-132628
-132028
-132133
-132388
-131744
-131129
-131414
-131714
-131324
-130949
-131414
-132058
-131998
-131908
-132538
-133273
-133258
-133108
-133693
-134277
-134008
-133693
-134112
-134667
-134412
-133963
-134322
-134772
-134427
-133978
-134337
-134727
-134352
-133918
-134247
-134727
-134412
-133948
-134262
-134667
-134307
-133843
-134142
-134562
-134232
-133813
-134157
-134562
-134232
-133828
-134172
-134682
-134337
-133903
-134322
-134787
-134517
-134112
-134427
-134877
-134562
-134172
-134472
-134922
-134637
-134217
-134562
-134982
-134697
-134322
-134637
-135147
-134847
-134352
-134697
-135117
-134787
-134367
-134712
-135162
-134787
-134322
-134607
-134817
-134202
-133603
-133993
-134547
-133903
-132928
-133108
-133678
-133423
-133018
-133333
-133768
-133483
-133348
-134038
-134697
-134577
-134277
-134682
-135177
-134907
-134487
-134802
-135267
-134967
-134562
-134922
-135357
-134952
-134517
-135282
-136137
-135447
-134082
-132478
-129824
-125282
-119224
-114906
-112537
-113962
-121398
-128505
-132193
-133468
-133318
-134157
-135177
-134712
-133933
-134038
-134277
-133918
-133513
-133768
-134127
-133768
-133288
-133558
-133963
-133543
-133003
-133288
-133633
-133243
-132733
-132973
-133348
-132958
-132433
-132643
-132988
-132613
-132088
-132283
-132628
-132193
-131609
-131774
-132088
-131624
-130979
-131069
-131354
-130829
-130169
-130304
-130529
-130064
-129495
-129764
-130349
-130199
-129989
-130589
-131339
-131354
-131159
-131699
-132358
-132268
-131968
-132373
-132958
-132703
-132268
-132613
-133078
-132778
-132313
-132613
-133048
-132718
-132223
-132508
-132958
-132613
-132088
-132388
-132853
-132508
-131998
-132268
-132718
-132403
-131908
-132193
-132658
-132358
-131879
-132148
-132658
-132373
-131908
-132223
-132673
-132418
-131938
-132238
-132763
-132463
-132028
-132388
-132868
-132553
-132103
-132418
-132883
-132583
-132118
-132433
-132913
-132643
-132208
-132463
-132913
-132613
-132103
-132388
-132868
-132538
-132043
-132358
-132778
-132433
-131834
-131864
-132088
-131669
-131189
-131519
-131669
-130874
-130259
-130619
-131159
-130934
-130394
-130679
-131264
-131324
-131174
-131654
-132388
-132268
-131908
-132238
-132703
-132433
-131998
-132313
-132823
-132568
-132073
-132343
-132778
-132598
-132658
-133348
-133528
-132358
-129809
-126751
-122718
-116780
-111593
-108969
-111818
-119719
-125941
-129914
-131968
-131759
-131864
-132508
-132748
-132298
-131609
-131714
-132238
-131983
-131429
-131654
-132088
-131819
-131309
-131504
-131953
-131624
-131069
-131309
-131729
-131384
-130814
-131039
-131504
-131144
-130589
-130829
-131219
-130874
-130319
-130409
-130769
-130424
-129749
-129884
-130214
-129719
-129060
-129120
-129360
-128895
-128190
-128250
-128565
-128220
-127725
-128115
-128820
-128820
-128670
-129270
-130109
-130184
-129959
-130484
-131174
-131129
-130784
-131084
-131669
-131489
-131024
-131354
-131864
-131594
-131084
-131339
-131849
-131564
-131054
-131264
-131774
-131504
-130979
-131234
-131729
-131474
-130979
-131204
-131714
-131444
-130919
-131159
-131654
-131429
-130934
-131174
-131669
-131444
-130949
-131159
-131684
-131474
-130979
-131249
-131774
-131564
-131084
-131354
-131864
-131669
-131204
-131429
-131983
-131774
-131294
-131549
-132043
-131834
-131354
-131594
-132118
-131908
-131414
-131639
-132148
-131953
-131474
-131684
-132148
-131938
-131429
-131684
-132208
-131908
-131339
-131414
-131654
-131249
-130694
-131009
-131354
-130589
-129824
-130124
-130709
-130574
-130064
-130304
-130859
-130904
-130829
-131264
-131983
-132028
-131639
-131923
-132478
-132283
-131789
-132028
-132613
-132493
-131998
-132238
-132748
-132463
-132253
-133108
-133723
-132958
-131189
-128745
-125476
-120049
-114097
-110318
-109644
-114891
-122643
-128025
-131354
-131849
-131519
-132373
-132943
-132538
-131849
-131864
-132343
-132178
-131639
-131819
-132328
-132073
-131549
-131744
-132193
-131953
-131399
-131549
-132043
-131789
-131204
-131354
-131819
-131564
-130979
-131144
-131579
-131294
-130724
-130859
-131294
-130964
-130289
-130364
-130739
-130319
-129600
-129630
-129944
-129525
-128805
-128790
-129105
-128775
-128205
-128445
-129105
-129165
-128940
-129405
-130244
-130394
-130139
-130649
-131429
-131444
-131144
-131459
-132073
-131998
-131534
-131759
-132298
-132103
-131609
-131819
-132313
-132088
-131564
-131729
-132238
-132058
-131549
-131729
-132208
-132028
-131489
-131669
-132193
-131968
-131459
-131639
-132163
-131983
-131474
-131669
-132178
-132043
-131549
-131714
-132268
-132163
-131654
-131849
-132388
-132208
-131744
-131998
-132538
-132388
-131908
-132103
-132628
-132463
-131983
-132208
-132733
-132553
-132028
-132223
-132778
-132613
-132088
-132253
-132793
-132658
-132133
-132313
-132853
-132688
-132178
-132328
-132883
-132748
-132208
-132373
-132928
-132778
-132238
-132403
-132988
-132838
-132283
-132463
-133003
-132823
-132298
-132433
-132898
-132628
-131908
-131864
-132328
-132223
-131624
-131294
-131384
-131219
-130769
-131039
-131609
-131429
-130964
-131279
-132193
-132343
-132028
-132433
-133093
-133018
-132538
-132748
-133333
-133213
-132703
-132898
-133498
-133348
-132793
-132913
-133558
-134023
-133828
-133588
-133123
-130679
-126691
-122133
-117035
-112477
-109569
-113137
-121923
-127935
-130889
-132328
-132928
-133408
-133108
-133078
-133498
-133153
-132538
-132718
-133228
-133063
-132508
-132598
-133093
-132928
-132343
-132463
-132988
-132778
-132178
-132313
-132763
-132553
-131998
-132103
-132598
-132373
-131789
-131879
-132343
-132133
-131459
-131504
-131938
-131639
-130964
-130949
-131309
-130979
-130229
-130184
-130529
-130184
-129465
-129420
-129839
-129615
-129150
-129495
-130289
-130439
-130229
-130679
-131534
-131684
-131384
-131774
-132538
-132538
-132118
-132328
-132958
-132898
-132373
-132523
-133048
-132913
-132373
-132493
-133018
-132868
-132328
-132433
-132973
-132838
-132253
-132388
-132943
-132793
-132238
-132388
-132943
-132823
-132268
-132418
-132988
-132868
-132328
-132463
-133033
-132928
-132403
-132568
-133108
-133018
-132523
-132658
-133213
-133123
-132613
-132763
-133303
-133213
-132703
-132853
-133408
-133273
-132733
-132883
-133453
-133348
-132823
-132958
-133513
-133393
-132853
-132988
-133558
-133453
-132928
-133093
-133648
-133543
-133003
-133138
-133708
-133603
-133063
-133168
-133723
-133618
-133078
-133183
-133753
-133633
-133063
-133213
-133783
-133663
-133123
-133258
-133813
-133708
-133153
-133243
-133813
-133708
-133153
-133258
-133768
-133603
-132913
-132778
-133123
-132943
-132493
-132493
-132493
-132043
-131534
-131729
-132358
-132238
-131714
-131879
-132598
-132898
-132658
-132943
-133678
-133723
-133228
-133333
-133948
-133918
-133378
-133498
-134082
-133978
-133453
-133573
-134067
-134187
-134262
-134532
-134592
-133378
-130259
-126706
-122223
-116541
-111938
-110318
-115476
-123707
-128670
-131893
-133363
-133363
-133498
-133708
-134053
-133828
-133078
-133153
-133753
-133663
-133078
-133123
-133648
-133513
-132943
-132988
-133483
-133363
-132793
-132823
-133303
-133138
-132553
-132598
-133078
-132928
-132358
-132373
-132823
-132658
-132043
-132058
-132478
-132268
-131609
-131564
-131968
-131684
-130934
-130829
-131189
-130934
-130199
-130064
-130439
-130259
-129675
-129794
-130499
-130664
-130379
-130769
-131624
-131849
-131609
-131938
-132718
-132853
-132463
-132643
-133273
-133303
-132808
-132913
-133483
-133408
-132853
-132898
-133438
-133363
-132763
-132838
-133378
-133258
-132688
-132718
-133243
-133153
-132598
-132673
-133213
-133093
-132538
-132598
-133123
-133078
-132508
-132613
-133198
-133108
-132568
-132658
-133213
-133168
-132628
-132703
-133288
-133243
-132748
-132883
-133423
-133393
-132868
-132943
-133513
-133438
-132913
-132928
-133498
-133498
-132883
-132943
-133528
-133468
-132943
-132988
-133573
-133543
-132973
-133078
-133618
-133558
-133063
-133093
-133678
-133618
-133048
-133138
-133648
-133558
-133048
-133123
-133678
-133663
-133123
-133183
-133753
-133678
-133078
-133138
-133678
-133618
-133108
-133168
-133663
-133543
-132853
-132598
-132973
-132958
-132508
-132388
-132343
-131953
-131474
-131594
-132223
-132178
-131654
-131744
-132538
-132928
-132598
-132838
-133573
-133633
-133123
-133213
-133873
-133843
-133348
-133438
-133948
-133918
-133378
-133393
-133948
-134217
-134247
-134367
-134277
-132913
-129734
-125956
-121368
-116121
-111788
-110858
-116945
-124967
-129315
-131998
-133318
-133528
-133618
-133783
-134097
-133873
-133168
-133138
-133738
-133738
-133138
-133123
-133678
-133603
-132973
-132973
-133483
-133393
-132838
-132838
-133288
-133213
-132643
-132598
-133078
-133033
-132463
-132418
-132883
-132793
-132103
-131998
-132448
-132268
-131564
-131444
-131864
-131609
-130874
-130724
-131039
-130919
-130214
-130034
-130424
-130259
-129630
-129764
-130514
-130754
-130544
-130829
-131669
-131998
-131774
-132073
-132853
-133033
-132628
-132763
-133423
-133483
-132958
-133003
-133603
-133558
-132973
-132988
-133513
-133513
-133033
-132973
-133513
-133498
-132868
-132973
-133528
-133438
-132853
-132808
-133393
-133453
-132883
-132868
-133453
-133513
-133018
-133018
-133543
-133528
-132988
-133078
-133663
-133648
-133138
-133153
-133738
-133768
-133228
-133318
-133963
-133948
-133408
-133408
-133933
-133993
-133483
-133468
-134038
-134067
-133543
-133573
-134142
-134112
-133603
-133663
-134217
-134247
-133693
-133663
-134202
-134202
-133738
-133708
-134232
-134307
-133708
-133648
-134112
-133918
-133153
-132973
-133603
-133693
-132733
-132193
-132673
-132823
-132448
-132478
-132958
-132973
-132478
-132793
-133768
-134053
-133738
-133828
-134412
-134547
-134097
-134112
-134727
-134802
-134307
-134262
-134757
-134802
-134277
-134277
-135312
-135777
-134952
-134232
-133003
-130049
-125716
-120289
-115941
-112957
-112912
-119779
-127800
-131594
-132958
-133483
-134412
-135057
-134547
-134157
-134472
-134337
-133738
-133783
-134322
-134322
-133723
-133603
-134187
-134217
-133573
-133453
-134008
-133993
-133303
-133228
-133828
-133828
-133183
-133078
-133588
-133573
-132928
-132823
-133273
-133228
-132583
-132463
-132898
-132808
-132103
-131893
-132268
-132088
-131324
-131159
-131549
-131369
-130649
-130484
-130994
-131069
-130649
-130904
-131744
-132103
-131938
-132268
-133153
-133453
-133138
-133303
-134038
-134172
-133693
-133738
-134322
-134412
-133888
-133873
-134457
-134502
-133963
-133933
-134502
-134547
-133993
-133888
-134472
-134562
-134008
-133978
-134502
-134547
-133993
-133933
-134502
-134562
-134008
-133963
-134547
-134607
-134038
-133993
-134562
-134607
-134053
-134008
-134607
-134727
-134157
-134097
-134697
-134787
-134247
-134172
-134742
-134832
-134292
-134247
-134832
-134922
-134367
-134322
-134922
-134967
-134427
-134382
-134922
-134982
-134412
-134322
-134802
-134727
-133963
-133648
-134127
-134307
-133648
-133123
-133303
-133378
-132928
-132958
-133543
-133558
-133033
-133123
-134067
-134457
-134112
-134232
-134952
-135087
-134547
-134517
-135072
-135177
-134652
-134577
-135147
-135252
-134682
-134547
-135207
-135867
-135657
-135177
-134787
-132643
-128610
-123812
-118700
-114382
-111323
-114277
-123212
-129675
-132553
-133768
-134352
-135102
-134817
-134502
-134922
-134757
-134082
-134038
-134562
-134637
-134067
-133933
-134457
-134502
-133888
-133723
-134202
-134247
-133648
-133513
-134008
-134023
-133423
-133258
-133753
-133768
-133153
-132973
-133423
-133423
-132778
-132553
-132958
-132883
-132163
-131893
-132268
-132178
-131414
-131084
-131444
-131324
-130574
-130319
-130769
-130859
-130394
-130514
-131369
-131759
-131594
-131864
-132718
-133153
-132853
-132958
-133723
-133993
-133603
-133603
-134187
-134367
-133858
-133768
-134292
-134397
-133888
-133753
-134307
-134427
-133873
-133768
-134292
-134382
-133828
-133693
-134247
-134352
-133783
-133678
-134202
-134292
-133753
-133633
-134187
-134322
-133828
-133738
-134292
-134427
-133918
-133813
-134367
-134547
-134053
-133933
-134502
-134667
-134142
-134053
-134637
-134757
-134217
-134127
-134697
-134817
-134307
-134202
-134757
-134892
-134382
-134262
-134787
-134907
-134337
-134232
-134787
-134832
-134247
-133963
-134217
-134187
-133663
-133588
-133903
-133528
-132733
-132658
-133288
-133513
-132943
-132868
-133483
-133903
-133828
-133933
-134712
-135042
-134592
-134547
-135117
-135297
-134787
-134682
-135267
-135432
-134967
-134862
-135372
-135477
-135162
-135657
-136451
-136077
-134382
-131804
-128745
-123902
-117830
-113587
-112312
-116930
-124757
-130199
-133813
-134967
-134562
-135072
-135777
-135717
-135027
-134667
-135162
-135327
-134757
-134592
-135102
-135192
-134592
-134457
-134952
-135012
-134472
-134307
-134787
-134907
-134337
-134112
-134607
-134712
-134112
-133903
-134382
-134457
-133828
-133648
-134097
-134142
-133513
-133198
-133603
-133588
-132838
-132493
-132808
-132718
-131983
-131624
-131968
-131923
-131294
-131159
-131804
-132178
-131923
-132118
-133003
-133498
-133288
-133423
-134247
-134652
-134307
-134322
-134982
-135207
-134727
-134637
-135207
-135372
-134862
-134712
-135222
-135402
-134877
-134682
-135222
-135417
-134847
-134652
-135162
-135312
-134772
-134637
-135147
-135267
-134742
-134607
-135147
-135327
-134817
-134667
-135222
-135402
-134862
-134697
-135252
-135417
-134922
-134802
-135327
-135522
-134997
-134832
-135387
-135597
-135087
-134937
-135477
-135612
-135117
-134997
-135507
-135687
-135177
-135012
-135552
-135717
-135192
-135012
-135567
-135762
-135222
-135087
-135612
-135747
-135237
-135087
-135597
-135777
-135267
-135072
-135612
-135792
-135222
-134982
-135357
-135267
-134592
-134427
-135012
-134967
-133918
-133498
-134097
-134322
-133903
-133738
-134247
-134457
-134217
-134472
-135237
-135642
-135297
-135222
-135822
-136017
-135507
-135387
-135972
-136167
-135687
-135537
-136032
-136227
-135672
-135612
-136766
-137291
-136331
-135207
-133468
-130139
-124847
-118999
-115131
-112942
-115806
-123857
-130529
-134247
-135057
-134922
-136092
-136526
-135777
-135447
-135777
-135852
-135387
-135207
-135687
-135822
-135282
-135057
-135522
-135657
-135087
-134832
-135282
-135417
-134847
-134577
-135027
-135177
-134607
-134367
-134862
-134982
-134382
-134112
-134547
-134652
-134038
-133723
-134097
-134112
-133408
-133078
-133438
-133378
-132673
-132283
-132568
-132538
-131834
-131474
-131938
-132178
-131774
-131804
-132658
-133168
-132988
-133123
-133933
-134397
-134142
-134187
-134877
-135207
-134787
-134652
-135237
-135462
-134967
-134817
-135312
-135492
-134967
-134787
-135312
-135477
-134922
-134712
-135192
-135387
-134877
-134637
-135102
-135297
-134772
-134592
-135102
-135282
-134772
-134547
-135087
-135327
-134832
-134622
-135192
-135417
-134907
-134757
-135267
-135477
-134982
-134772
-135327
-135552
-135042
-134847
-135372
-135612
-135102
-134922
-135447
-135642
-135162
-134952
-135462
-135702
-135222
-135042
-135582
-135792
-135252
-135057
-135582
-135807
-135342
-135102
-135612
-135837
-135282
-135072
-135597
-135822
-135327
-135102
-135597
-135837
-135342
-135132
-135627
-135792
-135222
-134937
-135222
-135177
-134577
-134412
-134907
-134682
-133678
-133438
-134067
-134382
-133873
-133648
-134202
-134532
-134442
-134592
-135282
-135747
-135387
-135267
-135837
-136047
-135552
-135387
-135912
-136167
-135717
-135507
-136032
-136256
-135687
-135837
-137021
-137246
-136092
-134412
-132028
-128190
-122283
-116885
-113752
-113572
-119314
-126961
-132238
-135087
-135057
-135102
-136242
-136436
-135732
-135342
-135642
-135822
-135342
-135087
-135567
-135732
-135177
-134922
-135387
-135552
-134997
-134757
-135192
-135357
-134802
-134532
-134982
-135132
-134562
-134292
-134697
-134862
-134307
-133993
-134397
-134517
-133903
-133588
-133933
-133993
-133303
-132883
-133168
-133168
-132478
-132028
-132313
-132298
-131624
-131294
-131729
-132043
-131714
-131729
-132478
-133033
-132853
-132898
-133708
-134247
-133948
-133903
-134547
-134892
-134517
-134337
-134847
-135102
-134622
-134412
-134892
-135117
-134607
-134337
-134832
-135042
-134547
-134322
-134787
-134982
-134472
-134202
-134697
-134952
-134457
-134232
-134697
-134952
-134457
-134217
-134742
-134967
-134472
-134232
-134757
-135057
-134547
-134292
-134847
-135087
-134607
-134457
-134997
-135222
-134727
-134502
-135012
-135282
-134832
-134637
-135132
-135357
-134907
-134667
-135162
-135402
-134862
-134667
-135177
-135402
-134952
-134682
-135147
-135417
-134937
-134682
-135147
-135417
-134952
-134697
-135192
-135387
-134877
-134667
-135132
-135372
-134907
-134622
-135087
-135207
-134442
-134038
-134442
-134802
-134277
-133453
-133528
-133783
-133393
-133273
-133768
-134008
-133513
-133483
-134487
-135012
-134697
-134637
-135297
-135642
-135162
-134967
-135522
-135807
-135297
-135057
-135582
-135837
-135372
-135072
-135582
-136286
-136286
-135867
-135612
-134038
-130424
-125956
-120904
-116361
-112792
-113692
-121608
-128925
-132268
-134038
-134847
-135552
-135612
-135237
-135507
-135612
-134952
-134682
-135162
-135327
-134802
-134532
-134937
-135132
-134712
-134457
-134862
-135072
-134502
-134172
-134592
-134817
-134277
-133933
-134352
-134532
-134008
-133663
-134067
-134247
-133678
-133303
-133663
-133813
-133153
-132748
-133108
-133228
-132568
-132058
-132328
-132358
-131639
-131219
-131564
-131759
-131294
-131114
-131774
-132283
-132148
-132268
-133033
-133558
-133363
-133348
-134053
-134517
-134217
-134053
-134562
-134922
-134472
-134187
-134682
-135012
-134562
-134262
-134727
-134952
-134442
-134202
-134682
-134922
-134412
-134067
-134547
-134847
-134307
-134082
-134547
-134757
-134367
-134142
-134637
-134952
-134487
-134187
-134667
-134982
-134487
-134202
-134712
-134952
-134562
-134352
-134787
-135132
-134682
-134367
-134877
-135147
-134682
-134457
-134952
-135237
-134712
-134427
-134922
-135177
-134772
-134487
-134967
-135327
-134847
-134562
-135057
-135342
-134877
-134607
-135057
-135267
-134787
-134592
-135027
-135237
-134667
-134157
-134457
-134682
-134262
-133873
-133753
-133618
-133258
-133093
-133678
-133963
-133438
-133213
-133828
-134517
-134472
-134427
-135027
-135432
-134982
-134682
-135252
-135642
-135177
-134892
-135402
-135702
-135267
-135012
-135402
-135702
-135657
-135762
-135867
-135297
-133093
-129899
-126496
-121368
-116061
-112912
-114187
-121518
-128490
-131864
-134082
-134922
-134892
-135267
-135822
-135762
-134952
-134487
-134952
-135252
-134757
-134427
-134847
-135117
-134592
-134232
-134682
-134937
-134427
-134112
-134517
-134757
-134232
-133843
-134277
-134502
-133978
-133618
-133978
-134217
-133708
-133303
-133633
-133768
-133198
-132763
-133093
-133213
-132538
-132058
-132298
-132403
-131714
-131204
-131519
-131654
-131099
-130814
-131369
-131879
-131684
-131654
-132418
-133003
-132793
-132778
-133498
-133993
-133693
-133513
-134067
-134397
-133963
-133678
-134127
-134412
-133933
-133618
-134082
-134322
-133813
-133513
-133918
-134217
-133708
-133288
-133723
-133978
-133513
-133183
-133603
-133918
-133363
-133018
-133513
-133768
-133288
-133003
-133423
-133768
-133273
-132973
-133468
-133738
-133243
-132928
-133408
-133783
-133303
-132958
-133408
-133723
-133258
-132913
-133378
-133738
-133243
-132943
-133423
-133708
-133273
-132958
-133318
-133558
-133048
-132508
-132703
-132883
-132448
-132148
-132253
-132043
-131459
-131249
-131804
-132148
-131654
-131369
-131908
-132553
-132448
-132343
-133003
-133498
-133153
-132898
-133393
-133738
-133303
-133003
-133483
-133813
-133378
-133063
-133498
-133753
-133543
-133843
-134472
-134277
-132643
-129794
-126586
-121818
-115791
-111398
-110153
-115176
-123152
-128325
-131759
-132943
-132583
-132958
-133543
-133618
-132988
-132418
-132793
-133138
-132628
-132313
-132718
-132943
-132478
-132148
-132523
-132763
-132253
-131849
-132238
-132463
-131923
-131564
-131938
-132193
-131684
-131264
-131639
-131893
-131324
-130889
-131219
-131399
-130799
-130304
-130529
-130619
-129989
-129465
-129660
-129719
-129015
-128520
-128790
-128895
-128325
-127995
-128580
-129120
-128985
-128970
-129749
-130424
-130304
-130289
-131009
-131564
-131309
-131129
-131699
-132103
-131714
-131414
-131864
-132193
-131744
-131399
-131819
-132118
-131654
-131279
-131714
-131998
-131519
-131129
-131549
-131879
-131399
-131024
-131459
-131804
-131339
-130964
-131414
-131759
-131294
-130964
-131414
-131744
-131309
-130979
-131444
-131804
-131354
-131024
-131474
-131819
-131384
-131084
-131564
-131879
-131444
-131129
-131579
-131953
-131519
-131174
-131609
-131938
-131474
-131129
-131579
-131849
-131369
-130994
-131309
-131399
-130754
-130349
-130799
-131099
-130259
-129450
-129839
-130244
-129884
-129585
-129974
-130364
-130049
-130094
-130919
-131474
-131204
-131024
-131579
-131968
-131564
-131249
-131729
-132043
-131609
-131309
-131774
-132118
-131609
-131204
-131938
-132898
-132643
-131729
-130859
-128550
-124307
-118775
-113767
-110168
-108519
-113527
-122178
-127695
-130139
-130589
-131219
-132208
-131849
-131294
-131534
-131624
-131099
-130799
-131219
-131519
-131039
-130664
-131069
-131384
-130844
-130469
-130889
-131144
-130649
-130229
-130634
-130934
-130424
-130049
-130424
-130679
-130184
-129779
-130109
-130334
-129779
-129300
-129585
-129749
-129150
-128595
-128820
-128955
-128295
-127740
-127980
-128085
-127456
-126931
-127246
-127575
-127231
-127081
-127785
-128445
-128340
-128340
-129090
-129719
-129555
-129435
-130064
-130529
-130229
-129989
-130469
-130829
-130424
-130109
-130544
-130859
-130394
-130034
-130424
-130769
-130274
-129944
-130379
-130649
-130184
-129839
-130229
-130544
-130109
-129719
-130154
-130499
-130049
-129749
-130169
-130499
-130049
-129690
-130154
-130544
-130094
-129764
-130229
-130574
-130139
-129824
-130304
-130664
-130244
-129914
-130319
-130679
-130289
-129944
-130379
-130724
-130274
-129944
-130424
-130769
-130349
-130034
-130454
-130799
-130379
-130004
-130424
-130784
-130334
-129974
-130379
-130664
-130094
-129510
-129719
-129959
-129600
-129225
-129210
-129150
-128655
-128370
-128895
-129300
-128835
-128490
-129045
-129779
-129690
-129570
-130244
-130739
-130364
-130094
-130589
-130979
-130559
-130214
-130664
-131039
-130634
-130304
-130709
-130949
-130634
-130874
-131699
-131684
-130304
-127725
-124652
-120214
-114067
-109269
-107245
-110753
-118550
-124457
-128445
-130229
-129899
-130169
-130874
-130994
-130439
-129854
-130154
-130544
-130064
-129690
-130094
-130409
-129944
-129570
-129959
-130244
-129779
-129375
-129749
-130064
-129600
-129195
-129570
-129869
-129375
-128970
-129345
-129615
-129135
-128670
-128955
-129225
-128685
-128130
-128385
-128565
-127965
-127411
-127605
-127725
-127036
-126481
-126721
-126871
-126316
-125911
-126346
-126871
-126691
-126616
-127351
-128025
-127935
-127905
-128610
-129195
-128970
-128775
-129360
-129824
-129435
-129060
-129525
-129944
-129525
-129180
-129585
-129944
-129525
-129120
-129510
-129869
-129435
-129045
-129435
-129794
-129375
-128970
-129360
-129779
-129345
-128985
-129420
-129749
-129330
-128985
-129435
-129809
-129375
-129000
-129435
-129839
-129435
-129090
-129525
-129899
-129540
-129180
-129600
-129974
-129630
-129285
-129690
-130064
-129675
-129345
-129764
-130124
-129734
-129375
-129809
-130169
-129749
-129405
-129809
-130184
-129764
-129420
-129854
-130199
-129794
-129435
-129854
-130214
-129794
-129465
-129869
-130214
-129779
-129420
-129884
-130259
-129824
-129450
-129869
-130274
-129854
-129450
-129869
-130244
-129794
-129390
-129749
-130064
-129495
-128865
-129090
-129450
-129060
-128490
-128355
-128430
-128115
-127860
-128325
-128700
-128295
-127980
-128655
-129450
-129315
-129165
-129719
-130184
-129839
-129510
-129989
-130409
-130034
-129645
-130049
-130499
-130109
-129749
-130109
-130529
-130634
-130724
-130844
-130379
-127980
-124247
-120199
-114876
-109704
-106420
-108669
-116855
-123452
-127081
-129285
-129794
-129944
-129929
-130139
-130379
-129794
-129345
-129809
-130169
-129749
-129330
-129690
-130079
-129645
-129255
-129600
-129899
-129495
-129090
-129420
-129749
-129255
-128820
-129195
-129480
-129045
-128640
-128955
-129285
-128805
-128325
-128655
-128880
-128325
-127830
-128070
-128265
-127680
-127096
-127306
-127441
-126826
-126241
-126421
-126646
-126151
-125746
-126211
-126721
-126526
-126466
-127171
-127860
-127785
-127710
-128400
-129000
-128775
-128535
-129090
-129525
-129150
-128835
-129270
-129660
-129255
-128850
-129240
-129615
-129195
-128790
-129195
-129585
-129135
-128745
-129135
-129525
-129120
-128700
-129105
-129480
-129060
-128670
-129090
-129465
-129075
-128760
-129150
-129555
-129165
-128790
-129210
-129570
-129210
-128865
-129255
-129630
-129285
-128925
-129315
-129749
-129375
-129015
-129480
-129869
-129495
-129120
-129495
-129899
-129510
-129165
-129585
-129974
-129600
-129195
-129615
-130019
-129630
-129255
-129675
-130049
-129630
-129240
-129645
-130049
-129675
-129315
-129734
-130124
-129749
-129405
-129824
-130169
-129749
-129405
-129809
-130199
-129824
-129405
-129824
-130199
-129749
-129300
-129555
-129704
-129150
-128760
-129240
-129465
-128520
-127845
-128325
-128790
-128490
-128115
-128505
-128940
-128790
-128835
-129465
-130049
-129899
-129645
-130094
-130514
-130169
-129809
-130244
-130664
-130289
-129959
-130394
-130784
-130304
-129959
-130889
-131789
-131144
-129944
-128415
-125506
-120799
-114816
-110438
-107770
-108804
-116106
-123557
-127890
-129435
-129225
-130169
-131039
-130499
-129989
-130214
-130439
-130064
-129704
-130109
-130514
-130034
-129570
-129914
-130214
-129764
-129360
-129749
-130094
-129630
-129195
-129540
-129884
-129435
-128940
-129285
-129690
-129270
-128790
-129075
-129360
-128850
-128325
-128565
-128835
-128310
-127755
-127980
-128130
-127530
-126961
-127156
-127366
-126781
-126226
-126496
-126841
-126571
-126346
-126931
-127575
-127515
-127471
-128220
-128925
-128790
-128655
-129255
-129794
-129555
-129255
-129704
-130094
-129719
-129390
-129809
-130214
-129794
-129360
-129764
-130124
-129719
-129345
-129734
-130169
-129779
-129330
-129675
-129974
-129540
-129210
-129615
-130049
-129675
-129255
-129675
-130064
-129660
-129345
-129764
-130169
-129824
-129495
-129914
-130304
-129944
-129600
-130004
-130454
-130109
-129749
-130184
-130574
-130184
-129779
-130244
-130709
-130304
-129944
-130304
-130634
-130289
-129929
-130319
-130724
-130349
-129959
-130349
-130814
-130454
-129989
-130409
-130904
-130514
-130064
-130439
-130829
-130499
-130139
-130529
-130934
-130559
-130124
-130454
-130889
-130514
-130094
-130484
-130799
-130199
-129615
-129884
-130319
-129974
-129135
-128970
-129345
-129090
-128775
-129195
-129600
-129315
-128985
-129630
-130394
-130229
-130079
-130649
-131144
-130814
-130424
-130829
-131279
-130934
-130574
-130994
-131444
-131084
-130634
-130949
-131609
-131774
-131489
-131294
-130439
-127545
-123692
-119299
-114277
-110108
-108084
-112762
-121518
-126451
-128730
-130214
-130889
-131264
-131144
-131204
-131369
-130814
-130409
-130844
-131174
-130739
-130289
-130664
-131069
-130649
-130244
-130544
-130889
-130484
-130049
-130424
-130739
-130289
-129869
-130169
-130499
-130064
-129570
-129869
-130244
-129764
-129195
-129495
-129749
-129225
-128670
-128835
-129060
-128550
-127920
-128025
-128250
-127665
-127051
-127276
-127560
-127081
-126676
-127171
-127785
-127635
-127515
-128190
-128880
-128820
-128655
-129255
-129869
-129645
-129360
-129779
-130244
-129929
-129525
-129899
-130289
-129884
-129465
-129809
-130199
-129764
-129315
-129675
-130064
