# aauwss ecg epoch, one sample per line
# source AAUWSS (Aalborg University Wearable Sleep Study) v1.1, Zenodo 10.5281/zenodo.16919071
# licence CC-BY-4.0 - Djanian S, Nielsen T D, Nielsen S H, Bruun A (2025)
# subject 10
# fs_hz 200.0
# samples 6000
# scale 0.1  (value = count * scale, arbitrary published units, NOT mV)
# source_row 473 of 947
# stage_label N2
# epoch 474.0
61053
64027
65958
63171
59659
58584
57267
54874
53141
52822
52833
53426
54534
55368
55719
55599
55555
55676
55719
55763
55862
55950
55972
56027
56093
56180
56224
56224
56323
56400
56422
56455
56510
56608
56641
56652
56751
56850
56894
56905
56992
57157
57190
57223
57376
57552
57673
57728
57925
58199
58309
58463
58704
58924
59110
59308
59538
59780
59944
60043
60197
60230
60065
59791
59461
59110
58660
58123
57651
57245
56817
56389
56082
55884
55665
55445
55368
55357
55280
55226
55248
55291
55291
55204
55215
55324
55313
55280
55324
55379
55401
55324
55357
55434
55423
55390
55379
55434
55412
55313
55335
55401
55324
55226
55248
55291
55258
55182
55215
55269
55215
55127
55149
55237
55182
55105
55127
55160
55193
55138
55116
55171
55171
55105
55116
55171
55127
55083
55105
55160
55149
55105
55127
55171
55127
55072
55138
55226
55182
55083
55116
55193
55171
55094
55105
55171
55149
55149
55149
55127
55149
55116
55160
55226
55171
55116
55138
55215
55226
55182
55193
55215
55204
55160
55204
55302
55434
55610
55741
55972
55873
55719
56027
56235
56224
56169
56136
55994
55752
55643
55467
55357
55291
55083
55017
55083
55039
54907
54907
54995
54995
54940
54918
54995
54984
54907
54962
55039
55094
55061
55215
55105
54710
55302
55983
57475
60295
63028
66145
66046
62161
59933
59044
56916
54523
53514
53415
53777
54699
55522
56027
56235
56136
56082
56213
56323
56345
56345
56411
56542
56597
56553
56586
56685
56773
56795
56850
56959
56981
56937
56959
57124
57179
57102
57179
57322
57376
57365
57431
57607
57695
57717
57815
57991
58156
58210
58375
58606
58748
58913
59143
59385
59527
59626
59878
60142
60295
60361
60394
60361
60230
59922
59538
59187
58759
58276
57815
57442
57003
56586
56345
56158
56016
55873
55829
55851
55796
55741
55730
55763
55719
55665
55697
55774
55851
55796
55763
55862
55818
55708
55730
55829
55818
55708
55632
55676
55665
55555
55544
55643
55643
55511
55434
55412
55379
55335
55379
55390
55335
55269
55193
55226
55248
55160
55171
55215
55182
55138
55127
55204
55193
55083
55050
55039
55050
55006
55006
55028
54951
54918
54918
54951
54995
54962
55039
55072
54962
54874
54863
54907
54918
54874
54885
54951
54918
54831
54776
54820
54874
54820
54831
54852
54820
54798
54787
54831
54798
54699
54721
54765
54776
54732
54677
54754
54776
54754
54776
54798
55017
55171
55237
55357
55204
55193
55533
55643
55621
55566
55423
55324
55215
54940
54732
54677
54534
54403
54392
54457
54435
54293
54260
54293
54249
54216
54238
54315
54315
54205
54183
54326
54359
54359
54446
53953
53755
54468
55368
57772
60734
63972
66726
64235
59966
58627
57464
55215
53492
52910
52691
53075
53931
54589
55138
55313
55269
55324
55302
55412
55544
55489
55599
55730
55763
55796
55796
55895
55939
55873
55917
56060
56147
56103
56158
56301
56323
56301
56334
56411
56466
56488
56575
56696
56751
56784
56905
57113
57245
57322
57464
57662
57793
57903
58090
58320
58518
58638
58770
58968
59121
59154
59143
59099
58880
58441
58068
57782
57344
56883
56477
56103
55818
55500
55280
55193
55028
54885
54820
54820
54809
54732
54754
54831
54841
54743
54732
54831
54831
54809
54820
54874
54918
54907
54852
54852
54896
54787
54776
54841
54776
54666
54622
54622
54567
54534
54556
54567
54556
54468
54414
54435
54403
54359
54337
54359
54337
54260
54282
54315
54304
54172
54172
54293
54227
54139
54205
54260
54216
54139
54106
54216
54216
54139
54139
54194
54205
54106
54084
54205
54205
54106
54095
54139
54106
54040
54051
54106
54106
54051
54029
54117
54172
54051
54029
54139
54150
54216
54414
54655
54710
54479
54479
54863
55028
54874
54863
54874
54633
54468
54381
54227
54117
53898
53733
53755
53722
53667
53645
53656
53634
53558
53579
53656
53656
53590
53579
53667
53689
53733
53733
53865
53777
53239
53766
54600
55895
58737
61557
64861
65289
61261
58682
57848
55829
53338
52361
52230
52372
53250
54018
54655
54929
54721
54732
54885
54973
54951
54951
55127
55193
55171
55226
55324
55412
55390
55423
55566
55577
55533
55588
55708
55785
55741
55829
55983
56060
56093
56125
56301
56433
56455
56553
56729
56861
56970
57113
57365
57563
57629
57837
58112
58298
58452
58627
58880
59044
59143
59231
59198
59044
58693
58276
57936
57453
56916
56444
56071
55719
55291
54995
54809
54666
54501
54359
54337
54315
54194
54128
54238
54249
54205
54238
54271
54304
54282
54271
54315
54326
54304
54227
54271
54315
54260
54238
54282
54271
54194
54161
54205
54227
54128
54040
54139
54128
53997
53975
53975
53953
53898
53843
53898
53931
53832
53843
53931
53887
53821
53766
53788
53799
53722
53755
53788
53755
53733
53678
53711
53744
53678
53667
53722
53722
53667
53667
53700
53700
53623
53579
53678
53711
53623
53569
53612
53678
53623
53590
53623
53623
53590
53525
53547
53601
53536
53514
53579
53569
53492
53481
53547
53590
53547
53514
53569
53601
53514
53492
53558
53569
53503
53448
53514
53536
53481
53481
53514
53547
53547
53481
53503
53569
53492
53470
53547
53558
53492
53459
53514
53525
53470
53448
53547
53612
53536
53492
53569
53590
53514
53481
53536
53601
53536
53481
53579
53601
53536
53536
53612
53667
53623
53656
53733
53898
54106
54205
54381
54348
54216
54414
54688
54710
54655
54556
54359
54293
54216
54018
53997
53964
53755
53678
53744
53766
53700
53667
53733
53766
53744
53744
53854
53909
53865
53887
53997
54073
54128
54205
53876
54084
54973
55599
57914
60789
63368
65837
64016
60142
58507
57014
54710
53316
53108
53239
54051
55171
55796
55917
55873
55906
55917
55972
56136
56290
56312
56356
56499
56619
56652
56740
56883
56959
57014
57058
57201
57322
57311
57376
57563
57651
57706
57793
57958
58090
58134
58265
58452
58573
58649
58792
59034
59242
59396
59582
59835
60065
60186
60416
60745
60998
61217
61415
61700
61942
62018
62073
62084
61974
61733
61404
61042
60647
60230
59769
59385
59055
58671
58386
58232
58134
57991
57859
57914
57958
57870
57826
57914
58046
58002
57991
58112
58156
58123
58090
58199
58265
58199
58232
58298
58331
58276
58232
58276
58331
58320
58254
58287
58331
58221
58189
58287
58276
58199
58178
58232
58276
58232
58156
58221
58265
58178
58156
58254
58364
58254
58167
58210
58221
58210
58156
58178
58254
58210
58189
58243
58254
58199
58145
58254
58320
58232
58221
58254
58320
58287
58221
58265
58287
58298
58298
58331
58353
58287
58276
58331
58375
58353
58320
58364
58375
58320
58309
58375
58430
58386
58364
58419
58430
58419
58364
58419
58507
58430
58353
58397
58485
58419
58386
58496
58529
58474
58441
58463
58452
58485
58474
58485
58573
58485
58441
58551
58562
58518
58452
58496
58562
58529
58507
58529
58551
58562
58562
58562
58627
58606
58507
58573
58595
58551
58540
58595
58649
58562
58507
58606
58671
58595
58518
58595
58682
58616
58606
58660
58737
58759
58792
58990
59209
59253
59066
59165
59527
59604
59560
59560
59429
59110
59066
59055
58825
58704
58573
58485
58551
58507
58441
58463
58397
58287
58287
58353
58408
58408
58320
58364
58441
58441
58397
58595
58518
57881
58320
59187
60449
63215
66013
69305
70402
66682
63522
62490
60482
58068
57091
56948
57069
57925
58759
59286
59516
59429
59418
59527
59626
59626
59670
59802
59889
59878
59889
59966
60043
60098
60087
60164
60295
60295
60295
60449
60559
60493
60460
60548
60702
60669
60669
60844
60943
61009
61130
61250
61415
61448
61492
61733
61920
62018
62194
62402
62611
62754
62885
63127
63401
63533
63599
63686
63730
63621
63434
63193
62809
62370
61832
61393
61075
60603
60175
59911
59670
59418
59275
59220
59154
59055
58979
58990
59012
59001
58946
58968
59044
58990
58968
59055
59077
59066
59044
59023
59077
59088
58957
58968
59012
58891
58836
58869
58847
58770
58704
58693
58704
58660
58595
58627
58638
58562
58496
58507
58584
58507
58408
58474
58496
58441
58364
58342
58342
58364
58320
58331
58375
58298
58243
58287
58375
58342
58210
58243
58298
58210
58199
58254
58254
58199
58134
58156
58232
58221
58178
58210
58243
58189
58123
58123
58167
58156
58134
58178
58243
58210
58156
58189
58232
58199
58145
58178
58243
58210
58167
58232
58287
58254
58254
58287
58342
58309
58254
58331
58419
58397
58419
58507
58638
58847
58990
59132
59154
59034
59264
59582
59615
59560
59505
59363
59275
59242
59001
58891
58935
58792
58671
58726
58781
58737
58671
58737
58825
58803
58803
58869
58935
58935
58924
59088
59231
59286
59286
58847
58957
59835
60658
63017
65958
68987
71511
69382
65618
64213
62841
60416
58726
58364
58254
58869
59944
60625
61053
61108
61140
61195
61217
61349
61503
61601
61667
61777
61898
61942
61964
62117
62227
62271
62315
62413
62578
62666
62710
62830
62973
63006
63061
63160
63313
63445
63500
63643
63840
63972
64060
64301
64564
64696
64861
65124
65387
65541
65739
66002
66287
66518
66638
66836
67077
67143
67088
66979
66770
66441
65958
65497
65146
64707
64257
63917
63621
63346
63094
62951
62885
62798
62710
62732
62798
62721
62688
62776
62852
62907
62918
62984
63072
63105
63072
63105
63247
63269
63215
63280
63346
63357
63302
63291
63401
63357
63247
63324
63368
63335
63302
63324
63379
63357
63269
63291
63357
63357
63335
63379
63434
63423
63390
63434
63511
63456
63401
63467
63522
63478
63423
63478
63599
63588
63522
63555
63610
63632
63577
63610
63719
63664
63610
63664
63719
63719
63686
63730
63774
63752
63741
63774
63840
63840
63774
63818
63906
63851
63829
63884
63961
63928
63884
63939
63994
63972
63939
63972
64016
64038
64005
64005
64070
64103
64027
64038
64169
64147
64060
64114
64202
64169
64092
64147
64213
64213
64213
64202
64268
64268
64191
64246
64323
64301
64246
64301
64378
64356
64345
64433
64575
64773
64937
65069
65080
64970
65102
65343
65442
65409
65322
65157
64981
64926
64740
64575
64586
64433
64224
64224
64279
64257
64169
64169
64224
64191
64147
64191
64246
64235
64202
64279
64367
64378
64411
63994
64103
65036
65629
67725
70567
73179
75747
74101
70260
68636
67187
64817
63226
62885
62885
63544
64674
65398
65574
65453
65486
65508
65486
65596
65728
65760
65728
65815
65958
65947
65925
66035
66123
66145
66167
66232
66342
66364
66331
66397
66551
66605
66584
66649
66781
66836
66836
66935
67099
67198
67264
67385
67604
67758
67835
68043
68284
68438
68581
68811
69064
69250
69371
69590
69832
69909
69876
69755
69634
69349
68888
68449
68043
67527
67011
66584
66254
65936
65596
65354
65201
65069
64915
64861
64905
64861
64773
64773
64795
64795
64740
64740
64828
64850
64795
64773
64817
64828
64773
64762
64806
64784
64685
64663
64740
64685
64564
64520
64542
64488
64400
64400
64378
64345
64290
64257
64323
64268
64180
64180
64191
64169
64092
64060
64103
64070
63983
63972
64005
63983
63884
63862
63917
63873
63818
63807
63829
63796
63719
63719
63774
63763
63653
63632
63686
63686
63599
63577
63632
63610
63555
63533
63577
63588
63522
63511
63522
63511
63456
63434
63511
63489
63390
63390
63423
63412
63368
63346
63401
63412
63313
63291
63335
63324
63280
63247
63280
63302
63236
63215
63258
63269
63204
63193
63258
63258
63171
63138
63193
63182
63116
63116
63171
63193
63094
63094
63138
63116
63094
63083
63116
63105
63072
63050
63094
63072
63006
62984
63039
63061
62962
62984
63116
63204
63357
63533
63675
63610
63423
63653
63939
63961
63906
63774
63577
63390
63269
63083
62929
62863
62666
62545
62622
62545
62424
62435
62457
62446
62402
62391
62446
62468
62381
62402
62545
62556
62556
62589
62150
62413
63226
63950
66397
69064
71763
73914
71533
67922
66529
65003
62622
61130
60844
60954
61788
62885
63478
63533
63445
63489
63423
63467
63621
63664
63632
63697
63807
63818
63862
63917
64005
64081
64027
64092
64213
64213
64224
64224
64345
64433
64378
64400
64531
64630
64641
64718
64883
64937
64981
65157
65354
65508
65585
65717
65969
66188
66353
66507
66759
67011
67154
67352
67615
67780
67856
67922
67966
67791
67483
67132
66814
66408
65892
65442
65047
64707
64367
64092
63906
63752
63610
63533
63544
63555
63478
63456
63577
63610
63544
63566
63675
63730
63686
63697
63785
63851
63818
63774
63895
63950
63862
63917
63950
63950
63928
63873
63906
63939
63873
63862
63939
63939
63884
63862
63928
63939
63873
63917
64038
64027
63939
63928
64016
64070
63972
63972
64103
64169
64125
64070
64136
64158
64092
64125
64224
64257
64246
64235
64268
64323
64268
64224
64345
64400
64334
64334
64455
64498
64455
64422
64455
64477
64477
64498
64531
64575
64553
64520
64630
64685
64619
64575
64619
64718
64685
64663
64762
64773
64696
64740
64839
64861
64817
64795
64894
64905
64795
64839
64959
64937
64905
64937
65025
65069
64992
64959
65047
65091
65003
65003
65091
65113
65069
65036
65124
65201
65146
65146
65190
65201
65168
65168
65234
65256
65245
65223
65245
65376
65343
65398
65728
65848
65903
65859
65815
66167
66320
66243
66342
66287
66024
65870
65859
65651
65376
65300
65256
65245
65168
65069
65124
65190
65091
65036
65135
65146
65091
65058
65157
65212
65146
65157
65289
65365
64773
64652
65530
66452
68592
71500
74913
77448
75044
71171
69963
68658
65958
64136
63785
63708
64158
65080
65859
66331
66309
66221
66364
66452
66430
66452
66605
66704
66704
66737
66869
66924
66869
66924
67033
67110
67099
67110
67187
67231
67264
67297
67374
67461
67472
67450
67527
67615
67648
67736
67911
68021
68065
68186
68339
68548
68701
68800
69031
69217
69305
69470
69711
69974
70106
70216
70424
70479
70337
70161
70040
69733
69294
68888
68471
68087
67648
67198
66935
66704
66408
66177
66090
66057
65947
65881
65936
65969
65892
65804
65870
65925
65870
65848
65925
65958
65892
65859
65892
65903
65826
65760
65782
65804
65728
65651
65684
65717
65640
65552
65574
65574
65486
65431
65464
65486
65420
65376
65398
65387
65322
65289
65332
65354
65278
65201
65256
65300
65212
65179
65234
65234
65157
65146
65168
65179
65135
65080
65102
65135
65069
65036
65124
65102
65003
64981
65003
65047
65014
64959
65014
65014
64959
64905
64926
64970
64905
64839
64905
64926
64861
64817
64850
64872
64795
64784
64861
64872
64828
64773
64773
64806
64751
64696
64751
64773
64696
64663
64740
64762
64674
64641
64685
64718
64663
64630
64641
64685
64663
64586
64619
64663
64630
64619
64696
64894
65069
65146
65256
65146
65080
65376
65508
65486
65420
65223
65058
64970
64784
64531
64455
64400
64202
64103
64125
64103
64027
63961
63972
64005
63928
63851
63917
63961
63895
63873
63972
64005
64060
63818
63456
64180
64872
66145
69009
71642
74671
75132
71434
68844
67835
65771
63390
62435
62238
62435
63445
64411
64872
64883
64784
64839
64817
64861
64981
65058
65047
65025
65113
65223
65201
65212
65289
65354
65354
65332
65420
65508
65519
65552
65618
65684
65662
65695
65793
65870
65892
65925
66035
66145
66199
66276
66419
66616
66726
66814
67022
67242
67352
67472
67747
67955
68087
68241
68460
68625
68614
68537
68482
68295
67900
67494
67088
66638
66145
65640
65300
64970
64597
64334
64158
64049
63895
63763
63763
63785
63719
63675
63708
63730
63675
63632
63675
63741
63708
63664
63708
63719
63675
63599
63632
63664
63610
63555
63555
63588
63511
63423
63445
63445
63368
63302
63313
63302
63247
63182
63182
63215
63149
63072
63116
63149
63083
63017
63072
63072
62984
62940
62973
63006
62940
62874
62907
62918
62874
62830
62819
62874
62830
62754
62765
62809
62754
62688
62765
62787
62677
62655
62677
62677
62644
62600
62622
62655
62611
62578
62600
62622
62578
62501
62534
62600
62556
62490
62523
62556
62501
62457
62512
62545
62490
62468
62479
62468
62413
62402
62435
62468
62424
62370
62413
62446
62381
62337
62370
62424
62359
62315
62359
62391
62359
62293
62326
62370
62326
62304
62326
62359
62282
62238
62315
62315
62260
62227
62260
62337
62282
62238
62315
62413
62534
62688
62896
63017
62809
62776
63116
63247
63204
63160
62973
62754
62622
62468
62271
62183
62062
61865
61832
61865
61766
61722
61777
61755
61700
61656
61700
61744
61689
61667
61722
61821
61777
61832
61689
61272
61832
62545
63730
66463
69042
72059
73014
69557
66627
65640
63785
61327
60142
59944
60252
61261
62183
62655
62710
62611
62578
62589
62688
62819
62841
62809
62918
62995
62995
63006
63061
63160
63171
63171
63258
63302
63302
63324
63390
63456
63478
63489
63555
63653
63664
63675
63796
63906
63928
63994
64136
64290
64389
64488
64685
64894
65014
65146
65354
65607
65739
65859
66090
66309
66441
66496
66584
66584
66364
66057
65793
65442
64959
64455
64060
63697
63280
62907
62655
62446
62238
62073
61985
61985
61931
61843
61887
61920
61865
61821
61876
61953
61898
61821
61865
61942
61887
61821
61865
61865
61777
61755
61766
61744
61700
61634
61612
61656
61590
61503
61514
61536
61470
61393
61426
61470
61404
61327
61360
61371
61316
61261
61272
61294
61272
61206
61206
61261
61206
61140
61162
61184
61140
61086
61119
61162
61108
61042
61053
61140
61108
60998
61031
61097
61064
60998
61009
61053
61020
60965
60987
60998
60987
60965
60932
60976
60965
60921
60954
60976
60943
60877
60910
60965
60899
60855
60899
60943
60921
60877
60899
60921
60877
60844
60855
60910
60866
60822
60844
60888
60866
60811
60866
60921
60866
60822
60855
60877
60866
60822
60833
60899
60844
60778
60811
60855
60833
60800
60789
60833
60800
60734
60756
60811
60789
60734
60778
60833
60800
60800
60987
61283
61404
61459
61382
61338
61623
61766
61733
61810
61645
61316
61206
61151
60888
60669
60625
60537
60449
60383
60361
60372
60317
60263
60274
60295
60263
60230
60285
60328
60306
60328
60383
60482
60449
59889
60043
60954
61722
63939
66737
69766
72070
69766
66156
64970
63653
60965
59099
58737
58726
59374
60449
61184
61415
61250
61195
61316
61415
61393
61459
61612
61612
61557
61645
61744
61733
61711
61821
61920
61920
61920
61964
62040
62073
62051
62095
62161
62183
62205
62293
62413
62435
62424
62523
62644
62721
62765
62918
63116
63247
63335
63511
63763
63917
64016
64224
64477
64663
64773
64926
65135
65190
65113
65080
64894
64575
64180
63708
63324
62918
62424
62073
61810
61470
61119
60954
60877
60767
60647
60603
60636
60559
60460
60526
60603
60559
60515
60548
60592
60570
60504
60493
60526
60482
60350
60383
60449
60361
60252
60263
60306
60230
60131
60131
60120
60087
60010
59999
60076
59999
59889
59922
59966
59933
59857
59857
59857
59802
59725
59736
59758
59714
59714
59736
59736
59681
59615
59626
59659
59615
59560
59560
59604
59582
59516
59549
59571
59516
59472
59516
59538
59505
59472
59483
59483
59461
59407
59374
59429
59472
59385
59352
59407
59374
59319
59341
59407
59385
59308
59319
59352
59330
59308
59308
59352
59297
59253
59286
59330
59330
59253
59275
59319
59275
59209
59187
59286
59264
59176
59231
59253
59231
59176
59209
59297
59264
59187
59176
59242
59264
59187
59220
59264
59242
59220
59242
59494
59725
59780
59835
59747
59813
60098
60175
60241
60208
59922
59714
59670
59516
59198
59088
59088
58935
58858
58858
58836
58781
58649
58638
58726
58748
58704
58704
58803
58770
58704
58825
58869
58957
58627
58079
58660
59407
60888
63653
66737
70260
70161
66221
63994
63215
61020
58452
57475
57201
57289
58134
59023
59648
59857
59769
59802
59846
59824
59944
60054
60076
60098
60120
60219
60241
60230
60317
60394
60394
60383
60416
60526
60548
60548
60603
60647
60647
60614
60691
60811
60855
60866
60932
61075
61151
61184
61294
61492
61645
61700
61854
62051
62205
62359
62556
62787
62951
63039
63193
63390
63533
63544
63478
63379
63105
62699
62359
62018
61612
61130
60723
60427
60120
59824
59659
59516
59407
59297
59253
59297
59286
59209
59209
59297
59286
59187
59187
59264
59231
59154
59154
59187
59165
59077
59023
59044
59001
58913
58946
58968
58924
58847
58803
58814
58803
58737
58704
58726
58693
58649
58638
58671
58638
58562
58551
58606
58616
58507
58474
58562
58540
58485
58463
58507
58507
58397
58397
58463
58441
58397
58386
58463
58430
58342
58375
58408
58375
58331
58342
58386
58386
58298
58298
58364
58331
58265
58265
58320
58320
58254
58254
58331
58331
58232
58232
58320
58265
58199
58232
58287
58287
58232
58243
58298
58265
58210
58221
58287
58298
58210
58210
58287
58265
58210
58189
58243
58276
58199
58189
58254
58232
58232
58287
58507
58759
58836
58913
58836
58847
59099
59231
59253
59231
59012
58748
58726
58606
58287
58156
58167
58002
57881
57881
57870
57859
57761
57728
57826
57793
57717
57750
57804
57804
57826
57848
57903
58013
57585
57365
58254
58957
60669
63500
66331
69316
68427
64488
62644
61711
59330
57058
56389
56257
56619
57651
58507
58979
58946
58836
58957
59001
58990
59066
59176
59242
59253
59286
59363
59440
59440
59461
59560
59626
59615
59648
59747
59780
59780
59835
59922
59955
59911
59988
60131
60186
60197
60274
60427
60526
60603
60723
60899
61097
61195
61349
61612
61744
61843
62062
62337
62512
62611
62798
63017
63083
63006
62874
62732
62457
62018
61579
61228
60800
60295
59911
59615
59330
59044
58836
58748
58660
58551
58518
58562
58551
58507
58496
58518
58540
58485
58507
58627
58616
58507
58518
58562
58562
58518
58507
58540
58529
58430
58386
58430
58441
58309
58276
58353
58320
58221
58167
58232
58243
58134
58123
58189
58167
58090
58101
58145
58145
58057
58057
58134
58134
58057
58024
58057
58068
58013
58024
58090
58079
58013
57991
58057
58046
57958
57969
57991
58013
57958
57947
58013
58002
57969
57947
57991
58024
57925
57914
57991
58002
57958
57936
57969
57991
57947
57947
58013
58024
57947
57914
57958
57991
57914
57903
57991
57980
57925
57936
57969
57980
57947
57936
57991
58024
57969
57947
58057
58123
58199
58419
58649
58792
58606
58529
58913
59077
58957
59001
58935
58638
58463
58320
58156
58002
57870
57761
57706
57739
57662
57574
57629
57629
57530
57519
57585
57607
57552
57519
57662
57739
57651
57750
57398
57212
58024
58715
60636
63467
66254
69107
67944
64114
62359
61371
59088
56817
56027
55939
56466
57475
58243
58704
58770
58671
58671
58726
58847
58924
58891
58924
59023
59110
59143
59143
59242
59319
59330
59352
59429
59472
59429
59461
59571
59637
59648
59659
59747
59824
59780
59868
59999
60065
60153
60208
60383
60537
60592
60702
60888
61119
61261
61415
61667
61821
61931
62139
62391
62567
62622
62710
62743
62578
62282
61964
61656
61294
60811
60339
59933
59538
59154
58847
58682
58540
58331
58232
58210
58112
58035
58046
58101
58101
58035
58035
58101
58134
58079
58046
58101
58068
58002
57991
58035
58035
57925
57892
57936
57903
57793
57739
57772
57793
57684
57640
57673
57673
57618
57552
57585
57574
57486
57486
57475
57475
57442
57387
57409
57420
57344
57289
57344
57355
57300
57267
57300
57267
57179
57212
57245
57223
57168
57168
57212
57223
57157
57069
57146
57146
57047
57047
57058
57069
57014
56981
57080
57102
57003
56959
57025
57047
57003
56992
57047
57102
57025
56992
57146
57376
57442
57530
57607
57442
57585
57881
57870
57925
57914
57640
57519
57486
57212
57003
56937
56817
56729
56652
56608
56608
56531
56444
56499
56564
56510
56510
56586
56619
56510
56433
56597
56762
56630
56016
56180
56970
57936
60339
63204
66814
68625
65464
62249
61448
60054
57355
55610
55149
54962
55456
56389
57190
57585
57629
57673
57739
57728
57793
57892
57903
57936
58013
58101
58189
58178
58199
58287
58353
58386
58386
58452
58562
58540
58518
58606
58660
58704
58759
58869
58968
58968
59023
59198
59330
59319
59385
59604
59725
59769
59977
60230
60394
60504
60647
60921
61130
61283
61437
61557
61689
61634
61525
61481
61173
60702
60295
59900
59494
59055
58638
58353
58068
57750
57563
57486
57420
57289
57223
57300
57289
57267
57234
57267
57311
57256
57223
57267
57333
57300
57245
57311
57322
57223
57146
57190
57245
57135
57091
57113
57091
57025
56948
56992
57036
56959
56861
56905
56970
56861
56872
56927
56916
56861
56784
56806
56872
56850
56773
56795
56861
56828
56784
56828
56850
56795
56740
56784
56784
56718
56685
56751
56806
56740
56729
56773
56795
56740
56729
56795
56784
56696
56652
56740
56795
56762
56729
56828
57102
57256
57322
57387
57267
57344
57629
57750
57750
57684
57464
57322
57289
57080
56806
56707
56652
56520
56455
56510
56499
56400
56378
56444
56444
56356
56345
56411
56422
56389
56400
56488
56597
56652
56213
55950
56707
57420
59308
62216
65234
68372
67165
63149
61525
60636
58331
56027
55237
55028
55258
56158
56959
57563
57728
57684
57761
57761
57826
57958
58035
58079
58079
58178
58309
58320
58298
58386
58485
58485
58507
58616
58671
58671
58693
58825
58924
58880
58913
59055
59143
59176
59220
59363
59494
59560
59637
59769
59955
60054
60186
60394
60581
60734
60877
61119
61349
61470
61623
61832
61942
61920
61832
61678
61426
61009
60570
60219
59813
59363
58957
58660
58386
58090
57848
57739
57695
57596
57508
57552
57618
57563
57519
57585
57629
57585
57541
57585
57651
57618
57585
57618
57629
57596
57552
57585
57596
57508
57464
57497
57475
57431
57376
57398
57431
57355
57256
57289
57344
57267
57223
57267
57278
57223
57157
57168
57212
57168
57113
57168
57223
57157
57102
57157
57190
57146
57091
57124
57179
57124
57069
57102
57157
57124
57047
57124
57179
57124
57080
57069
57102
57069
57036
57102
57124
57080
57058
57058
57091
57058
57014
57069
57124
57080
57014
57058
57113
57080
57014
57058
57124
57058
57025
57091
57135
57080
57036
57091
57124
57091
57091
57168
57289
57464
57629
57804
57804
57607
57772
58112
58156
58112
58057
57837
57662
57574
57376
57234
57190
57014
56850
56861
56872
56828
56751
56773
56850
56806
56773
56817
56839
56795
56795
56916
56981
56981
57014
56630
56729
57596
58221
60350
63193
65914
68493
66748
62885
61305
60021
57662
55807
55313
55335
56005
57069
57837
58156
58068
58057
58068
58079
58199
58309
58309
58331
58430
58529
58540
58529
58638
58737
58748
58759
58836
58946
58924
58924
59034
59110
59121
59143
59275
59363
59374
59407
59538
59681
59725
59802
59988
60175
60274
60372
60592
60822
60965
61097
61371
61612
61722
61909
62150
62348
62457
62501
62523
62457
62194
61810
61503
61173
60691
60230
59900
59582
59220
58913
58759
58627
58474
58386
58364
58386
58375
58320
58364
58452
58419
58408
58496
58540
58518
58496
58540
58616
58584
58496
58573
58649
58573
58507
58540
58584
58518
58463
58496
58529
58474
58430
58474
58507
58463
58408
58463
58507
58430
58408
58463
58507
58474
58430
58474
58518
58496
58441
58474
58562
58540
58463
58507
58573
58540
58485
58540
58595
58573
58529
58573
58649
58638
58573
58616
58682
58638
58606
58638
58704
58704
58660
58682
58748
58726
58693
58726
58792
58781
58737
58792
58836
58803
58792
58847
58891
58836
58814
58880
58902
58891
58869
58891
58946
58924
58880
58935
58979
58946
58913
58957
59012
58990
58935
58990
59077
59034
58979
59034
59110
59077
59023
59077
59132
59088
59055
59099
59132
59110
59066
59088
59154
59154
59110
59132
59231
59264
59341
59637
59835
59911
59769
59692
60054
60241
60153
60208
60131
59813
59637
59593
59440
59242
59121
59044
58979
58924
58858
58858
58902
58869
58803
58814
58869
58847
58803
58858
58913
58924
58924
59001
59099
58616
58671
59582
60295
62413
65157
68054
70545
68526
64729
63324
62018
59451
57618
57300
57431
58101
59099
59868
60142
59977
59889
59966
60076
60098
60131
60230
60285
60317
60339
60394
60493
60515
60493
60581
60658
60647
60658
60734
60800
60800
60800
60877
60976
60998
61009
61097
61184
61250
61305
61404
61547
61623
61667
61810
62029
62150
62227
62446
62699
62819
62940
63149
63368
63522
63653
63829
63972
63983
63862
63730
63533
63182
62765
62402
62007
61525
61108
60811
60603
60328
60054
59966
59911
59813
59714
59703
59769
59714
59670
59725
59780
59769
59681
59703
59769
59725
59670
59692
59714
59670
59604
59582
59604
59527
59440
59461
59516
59429
59319
59319
59363
59308
59220
59242
59242
59154
59077
59099
59154
59077
59001
59055
59077
59001
58913
58924
59001
58979
58880
58902
58935
58880
58781
58814
58891
58792
58770
58781
58759
58748
58682
58715
58748
58693
58671
58682
58726
58682
58606
58671
58649
58562
58584
58584
58627
58584
58507
58606
58595
58518
58463
58474
58551
58485
58452
58507
58496
58441
58386
58441
58474
58408
58342
58375
58408
58397
58375
58331
58342
58353
58276
58298
58353
58298
58232
58276
58331
58243
58189
58254
58276
58243
58189
58210
58243
58199
58145
58167
58243
58210
58112
58156
58265
58265
58397
58649
58814
58825
58595
58726
59165
59154
59055
59066
58902
58649
58507
58364
58145
58057
57925
57815
57870
57750
57618
57695
57717
57651
57618
57585
57596
57585
57508
57585
57706
57739
57662
57793
57706
57036
57322
58101
59352
62018
64839
68284
69338
65837
62885
62018
60241
57530
56202
55939
56049
56806
57629
58342
58671
58562
58441
58551
58682
58649
58649
58737
58825
58880
58869
58913
59012
59044
58990
59044
59176
59209
59176
59231
59341
59319
59264
59352
59451
59451
59429
59505
59659
59703
59725
59835
59944
60021
60087
60230
60427
60548
60636
60811
61009
61162
61305
61481
61711
61887
61953
62073
62216
62183
61996
61810
61590
61239
60789
60394
60010
59593
59209
58924
58715
58441
58276
58232
58156
58079
57958
57947
58002
57947
57892
57925
57969
57914
57881
57925
57947
57903
57826
57826
57859
57826
57782
57750
57750
57728
57629
57607
57607
57541
57475
57486
57530
57464
57387
57376
57376
57376
57311
57311
57344
57289
57245
57201
57223
57245
57146
57157
57234
57201
57146
57113
57146
57135
57069
57080
57146
57135
57058
57080
57113
57047
57003
57025
57047
57036
57014
56981
57003
57069
56959
56916
56992
56959
56872
56916
57003
56981
56883
56894
56948
56916
56850
56872
56937
56872
56784
56850
56894
56839
56817
56839
56894
56850
56773
56861
56927
56850
56850
56894
57069
57300
57355
57508
57497
57365
57618
57826
57826
57815
57684
57497
57365
57256
57025
56861
56817
56685
56564
56564
56597
56531
56433
56455
56477
56477
56466
56466
56520
56499
56422
56510
56619
56652
56564
56060
56290
57102
57991
60394
63324
66594
68427
65651
62315
61338
59889
57157
55478
55050
54929
55654
56674
57344
57640
57607
57618
57651
57673
57761
57914
57969
57936
57980
58123
58167
58123
58189
58298
58276
58243
58386
58485
58518
58551
58562
58649
58693
58682
58803
58902
58946
58968
59012
59143
59231
59319
59451
59571
59714
59813
59988
60197
60306
60438
60603
60877
60987
61020
61283
61492
61579
61579
61514
61404
61097
60658
60274
59966
59527
59023
58726
58419
58046
57761
57585
57486
57355
57289
57223
57190
57234
57146
57190
57289
57212
57157
57190
57267
57223
57135
57212
57278
57234
57168
57146
57135
57102
57014
57036
57069
56959
56894
56916
56894
56850
56806
56839
56883
56861
56762
56740
56773
56707
56663
56619
56674
56685
56564
56575
56652
56641
56641
56586
56586
56586
56520
56488
56575
56586
56433
56422
56499
56455
56378
56367
56433
56444
56323
56389
56466
56389
56323
56301
56356
56378
56312
56268
56301
56257
56136
56191
56312
56301
56224
56213
56268
56290
56257
56455
56751
56806
56762
56685
56817
57047
57014
57047
57135
56916
56696
56630
56433
56202
56027
55840
55818
55796
55708
55741
55774
55697
55577
55566
55676
55654
55599
55654
55719
55708
55643
55763
55796
55149
55116
55983
57069
59429
62216
65804
68087
64959
61239
60252
58913
56378
54567
54073
53986
54457
55324
56071
56608
56663
56542
56608
56729
56817
56806
56883
57036
57047
57058
57135
57234
57256
57223
57245
57344
57409
57398
57453
57530
57563
57585
57629
57750
57782
57761
57848
57958
58057
58090
58145
58364
58507
58507
58627
58836
58979
59077
59231
59483
59681
59747
59911
60208
60372
60449
60570
60581
60460
60219
59933
59593
59187
58748
58320
57925
57486
57091
56839
56685
56531
56367
56246
56268
56235
56125
56147
56202
56169
56136
56191
56246
56257
56191
56147
56246
56257
56158
56147
56224
56191
56093
56071
56082
56114
56005
55994
56060
55994
55884
55895
55961
55917
55840
55862
55895
55829
55763
55774
55829
55851
55752
55730
55774
55774
55763
55796
55818
55807
55752
55741
55785
55796
55719
55708
55818
55785
55697
55741
55796
55774
55676
55676
55752
55774
55741
55719
55785
55785
55730
55796
55862
55972
56169
56323
56444
56345
56224
56553
56817
56784
56718
56630
56488
56301
56158
56005
55895
55774
55555
55511
55577
55533
55445
55423
55478
55500
55423
55434
55489
55500
55434
55456
55643
55643
55697
55522
55072
55676
56455
57826
60702
63555
66748
66946
63116
60723
59857
57936
55511
54304
54018
54183
55105
55961
56531
56784
56762
56784
56784
56872
57025
57080
57091
57168
57256
57289
57300
57376
57475
57541
57541
57530
57651
57750
57717
57772
57903
57958
57969
58024
58123
58189
58199
58287
58430
58518
58584
58715
58935
59088
59143
59308
59549
59692
59802
59999
60241
60427
60515
60647
60877
61020
60998
60877
60734
60482
60043
59637
59275
58814
58331
57969
57695
57398
57091
56916
56806
56685
56564
56499
56531
56542
56510
56510
56553
56575
56531
56553
56641
56641
56586
56630
56619
56542
56619
56597
56608
56641
56531
56531
56553
56466
56400
56444
56499
56422
56345
56389
56433
56378
56312
56268
56345
56323
56169
56235
56312
56279
56246
56235
56301
56312
56246
56235
56279
56268
56191
56191
56290
56268
56180
56158
56191
56213
56191
56169
56169
56213
56191
56125
56202
56268
56180
56169
56202
56180
56169
56158
56213
56213
56147
56147
56213
56224
56136
56114
56147
56246
56213
56180
56279
56290
56444
56696
56883
56905
56696
56784
57179
57289
57179
57157
56981
56740
56663
56531
56389
56279
56071
55939
56005
55972
55840
55818
55873
55851
55807
55785
55851
55917
55862
55862
55950
56005
55983
56082
55851
55686
56466
57113
58825
61678
64213
67121
66540
62534
60427
59418
57256
55105
54337
54271
54798
55840
56630
57102
57102
57003
57025
57080
57212
57278
57256
57300
57409
57464
57497
57530
57629
57728
57640
57651
57837
57903
57881
57914
58002
58068
58057
58101
58199
58276
58287
58364
58496
58562
58540
58584
58836
59034
59132
59308
59461
59637
59769
59911
60164
60339
60427
60647
60888
61031
61119
61173
61130
61020
60723
60361
60065
59659
59154
58693
58353
57980
57607
57344
57135
56981
56905
56861
56828
56806
56751
56718
56751
56784
56729
56718
56806
56795
56773
56784
56817
56839
56784
56795
56828
56806
56751
56718
56762
56751
56663
56630
56641
56641
56564
56520
56597
56575
56488
56520
56553
56531
56466
56455
56520
56520
56455
56444
56510
56499
56411
56444
56499
56499
56455
56433
56488
56499
56411
56411
56488
56488
56455
56433
56520
56564
56488
56499
56553
56542
56520
56531
56586
56586
56542
56542
56586
56619
56586
56564
56641
56630
56575
56586
56663
56707
56663
56641
56729
56762
56685
56718
56795
56795
56762
56751
56839
56872
56795
56817
56905
56937
56905
56883
56959
57003
56948
56959
57014
57036
57003
57014
57069
57091
57047
57047
57135
57157
57124
57135
57179
57190
57179
57157
57223
57300
57234
57245
57387
57442
57574
57815
57991
58101
57947
57914
58309
58463
58386
58386
58276
58035
57881
57772
57651
57563
57409
57278
57278
57256
57168
57157
57201
57201
57135
57124
57212
57256
57223
57223
57311
57387
57376
57497
57223
57080
57881
58485
60295
63138
65695
68570
67813
63928
61898
60767
58595
56575
55928
55928
56553
57695
58452
58759
58726
58671
58649
58704
58847
58935
58946
58990
59088
59143
59143
59187
59297
59363
59352
59396
59505
59560
59538
59582
59681
59747
59758
59758
59900
59988
59933
60010
60153
60241
60295
60405
60559
60658
60756
60910
61086
61250
61371
61503
61722
61942
62073
62249
62490
62666
62765
62863
62973
62929
62721
62490
62227
61876
61448
61020
60680
60317
59889
59593
59418
59220
59023
58880
58836
58825
58704
58660
58759
58781
58682
58671
58770
58814
58715
58704
58759
58748
58704
58671
58726
58737
58649
58584
58595
58606
58507
58474
58507
58474
58408
58342
58353
58342
58254
58254
58298
58309
58221
58178
58232
58199
58123
58112
58156
58178
58101
58079
58123
58090
58046
58013
58046
58079
58002
57991
58057
58068
58024
57980
58024
58046
57958
57936
58057
58046
57925
57914
57958
57958
57903
57881
57947
58002
57914
57870
57958
57936
57859
57870
57903
57903
57892
57892
57892
57914
57892
57848
57936
57958
57859
57859
57947
57969
57881
57881
57969
57958
57914
57914
57969
58057
57980
57903
57980
57958
57881
57892
57969
58013
57958
57936
57991
58035
57980
57947
58013
58068
58035
58024
58068
58112
58057
58024
58145
58167
58167
58375
58595
58770
58726
58540
58836
59198
59121
59099
59121
58858
58627
58573
58397
58243
58145
57958
57914
57936
57826
57793
57848
57837
57793
57772
57826
57870
57804
57804
57870
57925
57947
57958
58134
57761
57322
58002
58792
60548
63324
66342
69524
68701
64806
62907
62018
59626
57234
56510
56411
56839
57695
58463
59088
59143
59023
59044
59143
59264
59297
59330
59429
59527
59483
59505
59637
59670
59637
59703
59802
59846
59846
59857
59955
60065
60021
60043
60175
60186
60175
60241
60339
60394
60394
60471
60625
60723
60833
60943
61075
61283
61360
61415
61645
61799
61942
62095
62293
62556
62666
62732
62863
62973
62852
62688
62556
62282
61898
61470
61119
60745
60295
59955
59703
59505
59341
59143
59121
59088
58935
58913
58913
58935
58946
58891
58946
58957
58858
58847
58902
58924
58880
58847
58858
58825
58748
58737
58792
58781
58660
58595
58638
58562
58518
58507
58507
58540
58408
58342
58430
58452
58386
58342
58386
58353
58243
58221
58254
58276
58232
58199
58265
58243
58156
58101
58112
58178
58101
58035
58112
58145
58057
58024
58068
58046
58002
57969
57969
57914
57848
57892
57925
57947
57892
57837
57914
57947
57804
57761
57848
57892
57826
57761
57772
57826
57761
57706
