# aauwss ecg epoch, one sample per line
# source AAUWSS (Aalborg University Wearable Sleep Study) v1.1, Zenodo 10.5281/zenodo.16919071
# licence CC-BY-4.0 - Djanian S, Nielsen T D, Nielsen S H, Bruun A (2025)
# subject 13
# fs_hz 200.0
# samples 6000
# scale 0.1  (value = count * scale, arbitrary published units, NOT mV)
# source_row 462 of 925
# stage_label N3
# epoch 463.0
-2482
-2272
-1852
-2186
-2692
-2396
-1919
-2186
-2626
-2349
-1805
-2053
-2521
-2177
-1652
-1871
-2282
-1976
-1423
-1614
-2043
-1681
-1098
-1299
-1700
-1327
-697
-860
-1222
-793
-144
-249
-583
-115
630
601
353
945
1765
1832
1708
2338
3274
3445
3340
4037
4963
5097
5020
5670
6462
6376
5860
5899
6004
5145
3904
3379
3054
1966
706
324
257
-506
-1442
-1480
-1213
-1690
-2311
-2148
-1719
-2005
-2578
-2330
-1824
-2101
-2606
-2330
-1824
-2081
-2578
-2311
-1805
-2062
-2568
-2301
-1776
-2034
-2540
-2272
-1766
-2043
-2578
-2320
-1795
-2081
-2606
-2368
-1891
-2167
-2673
-2425
-1967
-2263
-2797
-2578
-2072
-2339
-2912
-2673
-2177
-2463
-2988
-2750
-2263
-2530
-3046
-2816
-2349
-2597
-3112
-2883
-2368
-2626
-3160
-2902
-2377
-2664
-3170
-2912
-2444
-2673
-3170
-2902
-2396
-2692
-3227
-2960
-2454
-2721
-3236
-2960
-2454
-2731
-3236
-2998
-2492
-2721
-3265
-3007
-2444
-2731
-3265
-2998
-2501
-2750
-3265
-3026
-2473
-2721
-3246
-2979
-2501
-2759
-3275
-3036
-2501
-2721
-3227
-2979
-2454
-2711
-3275
-3007
-2463
-2740
-3217
-2960
-2454
-2692
-3236
-2969
-2463
-2721
-3227
-2941
-2387
-2654
-3189
-2950
-2425
-2654
-3198
-2979
-2473
-2683
-3179
-2960
-2463
-2702
-3208
-2969
-2444
-2664
-3198
-2960
-2454
-2702
-3198
-2960
-2454
-2673
-3236
-2988
-2435
-2702
-3227
-2979
-2444
-2731
-3265
-3017
-2482
-2711
-3246
-3007
-2492
-2750
-3246
-2893
-2177
-2234
-2587
-2301
-1700
-1776
-2186
-1776
-1031
-1175
-1948
-1996
-1614
-1967
-2425
-2263
-2101
-2654
-3380
-3303
-2836
-3093
-3599
-3370
-2893
-3103
-3628
-3399
-2902
-3103
-3571
-3217
-2597
-3618
-4955
-3847
-965
3837
11196
19644
26937
26889
18757
11216
5746
925
-764
-249
114
-602
-1728
-1862
-1556
-1900
-2444
-2272
-1814
-2043
-2540
-2311
-1795
-1996
-2492
-2263
-1709
-1843
-2320
-2081
-1509
-1681
-2148
-1871
-1222
-1346
-1862
-1585
-955
-1012
-1471
-1175
-497
-602
-993
-592
95
-1
-335
133
868
887
630
1088
1995
2224
2080
2663
3627
3885
3770
4390
5297
5488
5355
5822
6567
6376
5574
5316
5278
4400
3016
2472
2252
1260
66
-363
-335
-879
-1728
-1795
-1404
-1757
-2396
-2263
-1805
-2053
-2606
-2368
-1843
-2053
-2559
-2444
-1900
-2024
-2549
-2320
-1776
-2043
-2587
-2330
-1805
-2015
-2549
-2339
-1795
-2024
-2511
-2349
-1900
-2072
-2606
-2454
-1948
-2158
-2740
-2568
-2062
-2339
-2855
-2654
-2158
-2358
-2912
-2721
-2196
-2463
-3046
-2826
-2291
-2501
-3084
-2931
-2425
-2626
-3179
-2988
-2444
-2683
-3208
-2969
-2444
-2616
-3170
-3036
-2492
-2721
-3322
-3084
-2473
-2654
-3256
-3112
-2578
-2740
-3236
-3017
-2559
-2778
-3294
-3093
-2549
-2702
-3208
-3046
-2530
-2778
-3370
-3122
-2482
-2731
-3341
-3093
-2597
-2807
-3265
-3055
-2492
-2702
-3313
-3036
-2501
-2807
-3265
-3017
-2549
-2797
-3351
-3074
-2482
-2692
-3236
-3017
-2521
-2816
-3275
-3007
-2559
-2759
-3294
-3103
-2559
-2788
-3246
-3093
-2587
-2702
-3256
-3007
-2473
-2759
-3246
-3065
-2568
-2750
-3275
-3074
-2482
-2654
-3198
-3007
-2501
-2711
-3265
-2979
-2454
-2797
-3275
-3007
-2511
-2645
-2950
-2549
-1900
-2034
-2511
-2167
-1499
-1490
-1814
-1509
-1060
-1566
-2272
-2101
-1623
-1967
-2702
-2769
-2540
-2855
-3485
-3399
-2769
-2969
-3656
-3456
-2836
-3017
-3561
-3256
-2654
-2883
-3322
-3819
-4115
-3170
-1127
3760
11779
19005
24093
24436
18002
10500
4868
601
-697
-659
-984
-993
-926
-1442
-2301
-2244
-1671
-1891
-2473
-2263
-1681
-1833
-2377
-2225
-1671
-1824
-2320
-2053
-1490
-1661
-2148
-1910
-1327
-1423
-1862
-1537
-898
-1051
-1480
-1203
-583
-669
-1117
-755
-29
-134
-564
-125
639
630
324
849
1708
1727
1403
2004
3045
3255
3102
3675
4581
4753
4553
5221
6147
6156
5765
5870
6147
5574
4438
3894
3655
2787
1460
773
792
171
-841
-984
-764
-1232
-1957
-1862
-1385
-1661
-2234
-2081
-1528
-1709
-2320
-2091
-1518
-1728
-2244
-2091
-1566
-1700
-2234
-2062
-1518
-1709
-2282
-2072
-1490
-1700
-2291
-2110
-1556
-1738
-2330
-2196
-1633
-1814
-2444
-2311
-1757
-1948
-2530
-2387
-1852
-2072
-2673
-2482
-1976
-2186
-2731
-2606
-2062
-2234
-2797
-2616
-2062
-2263
-2874
-2692
-2129
-2339
-2893
-2673
-2129
-2320
-2893
-2721
-2167
-2377
-2921
-2759
-2196
-2349
-2921
-2750
-2186
-2387
-2912
-2731
-2177
-2377
-2960
-2731
-2177
-2377
-2931
-2769
-2225
-2387
-2921
-2711
-2196
-2368
-2855
-2711
-2215
-2387
-2902
-2721
-2196
-2349
-2893
-2769
-2206
-2349
-2921
-2740
-2186
-2368
-2912
-2721
-2148
-2330
-2902
-2711
-2196
-2368
-2864
-2721
-2158
-2301
-2874
-2731
-2177
-2330
-2893
-2721
-2167
-2339
-2893
-2731
-2177
-2339
-2921
-2750
-2139
-2311
-2893
-2711
-2167
-2282
-2654
-2320
-1585
-1576
-2091
-1833
-1127
-1203
-1576
-1156
-688
-1175
-1938
-1948
-1366
-1413
-2196
-2396
-2110
-2454
-3131
-3046
-2463
-2616
-3208
-3046
-2482
-2673
-3236
-3017
-2377
-2444
-2960
-3561
-3876
-3131
-1232
3970
12495
20513
27099
27920
20522
12304
5851
1231
591
763
-115
-535
-573
-1060
-1757
-1728
-1251
-1451
-2062
-1891
-1318
-1499
-2034
-1871
-1308
-1385
-1919
-1719
-1108
-1241
-1709
-1499
-888
-955
-1471
-1232
-592
-659
-1127
-879
-201
-249
-678
-401
295
314
-96
248
1030
1088
782
1183
2004
2214
2023
2520
3417
3722
3598
4133
5164
5421
5278
5851
6767
6920
6529
6672
6987
6395
5240
4658
4381
3379
2033
1441
1317
591
-459
-726
-468
-850
-1576
-1537
-1089
-1308
-1919
-1833
-1261
-1423
-2005
-1852
-1327
-1480
-2015
-1891
-1327
-1461
-2005
-1852
-1289
-1423
-1957
-1843
-1251
-1318
-1910
-1795
-1232
-1375
-1910
-1814
-1289
-1423
-1996
-1871
-1327
-1480
-2072
-1957
-1432
-1576
-2158
-2062
-1547
-1709
-2263
-2177
-1652
-1786
-2358
-2234
-1681
-1843
-2425
-2301
-1738
-1852
-2463
-2358
-1786
-1929
-2501
-2358
-1805
-1948
-2492
-2349
-1814
-1957
-2492
-2377
-1843
-1967
-2521
-2425
-1881
-1986
-2559
-2444
-1891
-2024
-2587
-2463
-1871
-1986
-2540
-2425
-1881
-2005
-2568
-2463
-1900
-2015
-2568
-2454
-1910
-1996
-2559
-2473
-1891
-2005
-2568
-2444
-1852
-2005
-2587
-2444
-1891
-1986
-2559
-2463
-1862
-1967
-2549
-2425
-1891
-1996
-2549
-2463
-1862
-1976
-2540
-2416
-1881
-1957
-2501
-2416
-1833
-1948
-2540
-2425
-1862
-1976
-2530
-2396
-1843
-1967
-2530
-2406
-1862
-1996
-2540
-2416
-1852
-1967
-2511
-2368
-1824
-1948
-2530
-2377
-1623
-1585
-1986
-1709
-1060
-1070
-1528
-1308
-545
-430
-1003
-1194
-907
-1156
-1728
-1528
-1127
-1623
-2473
-2549
-2129
-2301
-2864
-2740
-2167
-2282
-2845
-2750
-2177
-2272
-2788
-2606
-1910
-2215
-3819
-3981
-1948
1078
7006
15578
24226
29429
25524
16714
10251
4419
496
515
1155
553
-621
-1031
-707
-955
-1604
-1566
-1041
-1156
-1757
-1671
-1098
-1165
-1681
-1566
-974
-1012
-1537
-1385
-783
-831
-1318
-1175
-545
-573
-1070
-879
-230
-258
-678
-478
181
238
-211
-1
735
811
400
715
1527
1708
1431
1804
2682
2968
2806
3283
4257
4610
4429
4973
5975
6271
6099
6519
7340
7340
6605
6385
6452
5689
4333
3579
3369
2510
1202
658
725
190
-736
-917
-573
-774
-1451
-1451
-926
-1051
-1661
-1604
-1031
-1127
-1690
-1595
-1051
-1146
-1671
-1585
-1012
-1070
-1661
-1566
-974
-1051
-1595
-1509
-936
-1041
-1623
-1528
-946
-1060
-1652
-1585
-1031
-1108
-1709
-1661
-1127
-1232
-1833
-1805
-1251
-1346
-1957
-1900
-1346
-1442
-2015
-1957
-1404
-1499
-2072
-2034
-1490
-1556
-2139
-2062
-1509
-1604
-2148
-2110
-1547
-1623
-2206
-2110
-1576
-1681
-2253
-2196
-1633
-1690
-2253
-2206
-1642
-1690
-2282
-2225
-1661
-1709
-2272
-2253
-1700
-1757
-2311
-2215
-1661
-1766
-2320
-2253
-1671
-1719
-2301
-2244
-1681
-1738
-2320
-2263
-1681
-1766
-2320
-2253
-1709
-1719
-2282
-2253
-1681
-1747
-2339
-2253
-1652
-1747
-2311
-2234
-1661
-1728
-2320
-2225
-1633
-1738
-2311
-2263
-1700
-1747
-2282
-2206
-1652
-1700
-2282
-2196
-1633
-1728
-2253
-2206
-1671
-1700
-2282
-2206
-1614
-1709
-2272
-2206
-1671
-1690
-2244
-2225
-1623
-1661
-2272
-2206
-1614
-1652
-2196
-2158
-1604
-1566
-1919
-1681
-936
-898
-1471
-1289
-573
-459
-783
-621
-258
-611
-1366
-1394
-736
-841
-1757
-2024
-1671
-1862
-2540
-2568
-1967
-2005
-2597
-2530
-1967
-2005
-2587
-2501
-1814
-1795
-2311
-2998
-3303
-2521
-736
4381
13029
21343
27815
28235
20942
12896
6261
1603
1059
1326
477
-29
-48
-421
-1165
-1241
-736
-850
-1432
-1385
-831
-860
-1413
-1366
-736
-745
-1299
-1194
-573
-573
-1098
-993
-363
-344
-821
-688
-39
-1
-468
-316
372
458
19
209
887
992
610
830
1603
1813
1460
1746
2615
2911
2710
3111
4047
4419
4305
4782
5803
6214
6042
6490
7426
7646
7235
7235
7560
7082
5899
5192
4944
4085
2730
2033
1937
1345
343
9
276
9
-736
-821
-344
-421
-1031
-1003
-411
-468
-1051
-1031
-449
-478
-1051
-984
-411
-430
-965
-917
-354
-392
-965
-917
-306
-344
-936
-917
-316
-316
-907
-888
-325
-354
-917
-907
-373
-421
-1022
-1031
-478
-516
-1146
-1146
-573
-602
-1194
-1184
-631
-697
-1270
-1241
-678
-697
-1289
-1280
-707
-736
-1308
-1289
-716
-745
-1308
-1261
-716
-736
-1289
-1261
-688
-726
-1289
-1261
-678
-716
-1280
-1241
-697
-707
-1261
-1261
-688
-726
-1280
-1222
-688
-726
-1299
-1280
-707
-716
-1289
-1270
-688
-688
-1289
-1261
-659
-678
-1241
-1222
-640
-631
-1194
-1184
-621
-640
-1222
-1194
-611
-640
-1203
-1194
-611
-621
-1184
-1117
-573
-602
-1156
-1136
-573
-592
-1127
-1127
-564
-573
-1156
-1117
-545
-573
-1136
-1146
-545
-535
-1117
-1089
-526
-554
-1108
-1089
-516
-526
-1089
-1089
-506
-487
-1079
-1079
-506
-526
-1041
-841
-125
38
-335
-306
314
458
19
267
1059
1030
162
-115
334
324
-182
-344
-163
-468
-1241
-1394
-860
-888
-1471
-1413
-812
-831
-1413
-1423
-869
-821
-1308
-1146
-850
-1919
-2616
-1051
2949
9688
17535
25515
30631
26374
17057
10347
5230
2214
1641
1641
1861
1279
171
-67
362
286
-354
-411
162
143
-440
-430
133
162
-373
-325
314
353
-211
-182
496
572
38
85
715
782
324
400
1050
1212
754
830
1536
1670
1231
1355
2080
2329
1975
2185
3025
3293
3025
3369
4314
4686
4486
4896
5927
6366
6204
6643
7617
7989
7722
7922
8552
8428
7483
6872
6739
5937
4581
3770
3550
2892
1727
1202
1365
1078
229
-1
458
343
-316
-382
152
162
-430
-449
95
85
-440
-468
66
76
-516
-468
162
104
-421
-421
85
152
-440
-487
104
57
-526
-535
-1
38
-545
-631
-77
-29
-602
-669
-182
-220
-783
-888
-344
-249
-860
-879
-335
-449
-1060
-1022
-382
-382
-1041
-1079
-535
-506
-1022
-1070
-554
-592
-1203
-1213
-669
-631
-1203
-1251
-640
-611
-1175
-1184
-669
-697
-1308
-1337
-726
-697
-1289
-1346
-697
-669
-1289
-1337
-879
-812
-1270
-1327
-774
-793
-1366
-1327
-802
-831
-1432
-1461
-793
-774
-1404
-1461
-917
-860
-1413
-1442
-831
-898
-1509
-1461
-907
-888
-1385
-1432
-984
-974
-1518
-1547
-946
-946
-1547
-1566
-946
-907
-1518
-1556
-984
-936
-1547
-1614
-1079
-993
-1490
-1595
-984
-955
-1566
-1556
-1031
-1003
-1547
-1623
-1041
-974
-1585
-1652
-1089
-1060
-1633
-1633
-1089
-1022
-1375
-1251
-535
-421
-984
-841
-67
114
-258
-115
362
47
-755
-850
-201
-239
-1136
-1471
-1156
-1280
-1948
-2110
-1556
-1451
-2024
-2072
-1499
-1509
-2110
-2158
-1404
-1184
-1766
-2301
-2769
-2253
-430
3560
10996
18728
24579
26460
21286
13564
7560
2720
687
792
544
372
381
9
-707
-946
-430
-449
-1203
-1165
-468
-487
-1146
-1251
-611
-430
-917
-974
-421
-258
-774
-841
-201
-77
-631
-621
47
171
-373
-373
419
658
114
85
840
1164
735
859
1594
1756
1536
1756
2491
2844
2596
2949
3865
4314
4266
4600
5507
5937
5698
6013
6939
7292
6882
6672
7025
6700
5545
4801
4515
3837
2500
1641
1660
1269
190
-325
9
-115
-860
-1060
-669
-611
-1127
-1241
-726
-611
-1165
-1299
-736
-659
-1261
-1356
-736
-631
-1346
-1442
-678
-592
-1289
-1356
-774
-774
-1241
-1232
-755
-755
-1366
-1432
-898
-869
-1404
-1490
-974
-955
-1585
-1671
-1108
-1041
-1604
-1747
-1222
-1098
-1700
-1843
-1299
-1261
-1824
-1900
-1346
-1241
-1862
-1976
-1366
-1346
-1938
-1986
-1432
-1375
-1948
-2072
-1518
-1423
-2053
-2129
-1537
-1442
-1996
-2129
-1547
-1442
-2034
-2139
-1623
-1499
-2005
-2129
-1566
-1461
-2081
-2129
-1499
-1471
-2043
-2081
-1499
-1423
-1996
-2081
-1556
-1471
-2043
-2167
-1556
-1423
-2024
-2120
-1576
-1518
-2034
-2101
-1537
-1461
-2062
-2139
-1585
-1499
-2034
-2148
-1576
-1471
-2081
-2167
-1585
-1499
-2043
-2120
-1585
-1509
-2062
-2186
-1576
-1471
-2091
-2186
-1595
-1480
-2024
-2148
-1566
-1299
-1671
-1623
-860
-716
-1241
-1156
-497
-182
-459
-554
-268
-478
-1213
-1327
-650
-640
-1614
-2034
-1623
-1681
-2396
-2501
-1910
-1824
-2358
-2482
-1938
-1824
-2387
-2416
-1757
-1537
-2454
-3637
-2921
-898
2271
9211
18079
25935
29190
23720
15502
9345
3350
582
1345
1393
334
-335
-201
-325
-1022
-1232
-755
-631
-1222
-1337
-755
-669
-1194
-1270
-688
-564
-1070
-1098
-516
-354
-869
-926
-287
-96
-573
-659
-29
238
-258
-316
400
668
209
248
964
1250
887
916
1680
2071
1737
1909
2815
3264
3064
3360
4333
4868
4753
5049
6042
6567
6462
6739
7521
7827
7254
6891
7044
6586
5297
4381
4104
3417
2128
1307
1269
916
-20
-459
-163
-201
-888
-1127
-640
-564
-1165
-1280
-774
-650
-1146
-1366
-812
-650
-1232
-1289
-716
-545
-1117
-1270
-669
-526
-1070
-1222
-688
-564
-1108
-1203
-650
-526
-1079
-1222
-669
-554
-1136
-1280
-736
-631
-1232
-1404
-860
-755
-1327
-1499
-1012
-869
-1413
-1576
-1051
-917
-1471
-1661
-1146
-1003
-1585
-1709
-1175
-1079
-1614
-1776
-1241
-1089
-1642
-1766
-1222
-1108
-1681
-1824
-1289
-1136
-1690
-1871
-1299
-1117
-1671
-1833
-1299
-1136
-1700
-1852
-1261
-1108
-1690
-1871
-1337
-1165
-1719
-1843
-1280
-1165
-1709
-1891
-1327
-1136
-1719
-1881
-1346
-1165
-1700
-1910
-1346
-1165
-1728
-1891
-1337
-1184
-1728
-1852
-1308
-1184
-1738
-1891
-1318
-1184
-1719
-1862
-1337
-1184
-1700
-1833
-1318
-1184
-1728
-1871
-1318
-1156
-1700
-1891
-1346
-1194
-1747
-1871
-1327
-1194
-1728
-1900
-1346
-1136
-1709
-1900
-1337
-1165
-1719
-1871
-1318
-1165
-1719
-1871
-1337
-1156
-1700
-1910
-1318
-1146
-1719
-1862
-1337
-1156
-1690
-1871
-1327
-1136
-1681
-1843
-1280
-1098
-1671
-1757
-984
-659
-1022
-1079
-516
-191
-621
-688
104
419
-335
-802
-449
-363
-821
-1070
-841
-1012
-1786
-2091
-1623
-1442
-2024
-2244
-1671
-1499
-2015
-2177
-1661
-1490
-1996
-2101
-1404
-1337
-2836
-3494
-1738
1393
7063
15311
24102
30259
27338
18289
11426
5670
1508
1183
1823
1441
276
-411
-134
-134
-764
-1012
-516
-344
-917
-1098
-535
-335
-850
-1022
-459
-230
-716
-850
-249
-29
-516
-640
-58
209
-249
-382
229
534
114
-1
687
1011
582
563
1250
1613
1288
1288
2061
2500
2205
2338
3216
3732
3579
3770
4725
5345
5240
5498
6471
7082
6910
7054
7836
8142
7502
6977
6987
6490
5173
4142
3885
3302
2052
1240
1250
1002
95
-373
-29
9
-640
-936
-459
-296
-860
-1060
-554
-344
-879
-1098
-535
-354
-907
-1079
-535
-344
-879
-1051
-526
-335
-850
-1051
-497
-296
-841
-1051
-564
-363
-879
-1127
-602
-382
-946
-1146
-659
-487
-1041
-1308
-783
-602
-1184
-1404
-888
-716
-1232
-1461
-955
-755
-1327
-1537
-1003
-841
-1366
-1585
-1098
-879
-1404
-1633
-1089
-888
-1413
-1633
-1156
-917
-1404
-1652
-1127
-898
-1423
-1681
-1175
-907
-1442
-1652
-1108
-917
-1451
-1652
-1117
-888
-1423
-1661
-1098
-860
-1394
-1604
-1070
-841
-1366
-1604
-1060
-821
-1375
-1604
-1051
-831
-1346
-1566
-1051
-831
-1337
-1566
-1041
-764
-1299
-1528
-984
-774
-1280
-1480
-936
-688
-1213
-1451
-936
-697
-1194
-1442
-907
-659
-1184
-1385
-850
-621
-1108
-1337
-831
-592
-1098
-1327
-783
-526
-1031
-1251
-726
-497
-1003
-1222
-697
-430
-936
-1175
-631
-373
-879
-1108
-611
-344
-850
-1117
-554
-277
-793
-1041
-516
-249
-736
-984
-487
-211
-697
-965
-449
-182
-678
-917
-382
-106
-621
-869
-344
-77
-573
-841
-287
-10
-545
-764
-239
19
-363
-421
267
668
190
-39
591
964
649
715
1298
1183
400
104
563
878
248
-335
-77
-1
-573
-907
-440
-106
-592
-841
-287
-20
-516
-793
-287
66
-373
-526
-144
-888
-1814
-716
2863
9497
17430
25362
31481
28884
19558
12046
6700
3531
2911
2730
2749
2415
1384
859
1212
1393
820
505
1002
1298
801
515
1050
1345
868
630
1164
1489
1021
792
1355
1708
1260
1059
1670
2004
1594
1422
1995
2395
2014
1851
2491
2911
2577
2443
3102
3550
3264
3235
4009
4562
4343
4400
5269
5918
5841
5994
6920
7636
7579
7741
8648
9335
9192
9163
9755
9889
9125
8361
8161
7674
6357
5230
4982
4553
3369
2558
2605
2520
1737
1250
1594
1727
1126
792
1250
1508
1002
725
1193
1479
992
677
1221
1527
1002
744
1240
1508
1011
735
1231
1508
1030
706
1202
1498
973
696
1183
1479
954
630
1097
1345
859
515
954
1240
696
381
878
1164
668
372
811
1088
610
257
696
973
477
181
658
916
419
133
591
878
362
57
544
859
410
85
553
849
324
19
496
811
343
-10
477
782
267
-29
467
754
229
-86
391
687
219
-77
391
715
229
-67
458
754
219
-96
391
668
219
-115
286
630
209
-86
410
696
209
-39
410
620
124
-134
372
687
171
-172
314
591
124
-125
324
610
104
-191
305
553
66
-211
248
544
95
-201
267
601
124
-211
257
525
-10
-268
295
591
38
-258
229
505
57
-249
190
515
66
-258
181
486
38
-268
229
572
76
-277
152
467
19
-277
171
448
-10
-249
219
496
66
-325
114
515
19
-335
104
458
57
-325
95
515
181
28
715
1164
735
534
1155
1641
1384
1212
1536
1575
868
410
983
1250
477
-191
9
238
-344
-697
-249
-1
-440
-745
-258
124
-401
-831
-220
238
-182
-602
-1165
-1337
-268
2424
8724
17019
23997
28579
26536
18766
11693
6070
2730
2424
2348
1947
1909
1680
859
419
859
1078
582
257
668
1030
553
162
668
1040
649
391
878
1260
811
515
1078
1470
1030
725
1240
1708
1412
1107
1641
2119
1718
1575
2128
2472
2252
2166
2844
3417
3102
2968
3780
4410
4133
4161
5049
5708
5698
5784
6548
7369
7388
7416
8209
8858
8619
8342
8705
8715
7808
6844
6567
6090
4734
3684
3465
3207
2243
1384
1470
1508
887
515
782
983
515
76
515
849
372
85
429
744
400
47
505
849
391
-1
439
868
410
-10
439
792
334
76
525
744
295
-77
362
715
181
-172
276
601
124
-296
162
572
76
-363
76
353
-172
-449
-39
209
-172
-526
-153
295
-182
-640
-144
219
-239
-631
-268
66
-382
-688
-201
95
-335
-764
-421
104
-421
-879
-335
85
-335
-841
-421
47
-440
-841
-459
-96
-478
-860
-392
-29
-516
-898
-516
-125
-497
-860
-449
-86
-516
-965
-516
-29
-478
-898
-506
-144
-545
-965
-611
-230
-573
-869
-487
-191
-611
-955
-564
-191
-592
-1012
-564
-201
-697
-1003
-621
-296
-659
-1022
-554
-96
-592
-1051
-602
-230
-631
-1012
-602
-239
-707
-1070
-631
-239
-669
-1089
-659
-211
-659
-1089
-640
-268
-659
-1012
-631
-230
-669
-1022
-392
152
-86
-306
76
582
305
38
754
1288
735
47
229
525
104
-344
-163
-96
-736
-1261
-1003
-707
-1156
-1480
-1003
-669
-1098
-1490
-1051
-650
-1031
-1289
-802
-898
-2291
-2206
410
4686
11149
18623
25944
28913
22823
14452
9297
4581
1489
1174
1794
1975
992
143
343
620
162
-335
76
505
47
-354
47
496
114
-325
171
630
229
-86
381
792
467
143
630
1107
754
419
925
1403
1097
830
1345
1870
1603
1355
1947
2500
2271
2080
2739
3407
3274
3197
3942
4658
4667
4677
5469
6347
6328
6300
7130
7922
7894
7741
8323
8791
8190
7416
7245
6949
5775
4515
4114
3760
2701
1737
1632
1660
954
276
467
744
276
-211
104
515
124
-316
85
496
57
-344
114
515
104
-296
95
525
152
-277
104
553
133
-287
133
515
133
-268
95
505
114
-306
57
410
-20
-449
-86
334
-96
-535
-144
200
-211
-640
-306
114
-287
-726
-354
19
-363
-774
-430
-10
-411
-860
-497
-67
-440
-898
-506
-96
-506
-907
-564
-144
-516
-984
-602
-163
-554
-993
-631
-220
-602
-1051
-688
-230
-602
-1041
-640
-211
-592
-1051
-678
-249
-631
-1031
-650
-239
-631
-1051
-669
-249
-611
-1051
-697
-258
-611
-1060
-697
-258
-650
-1060
-688
-296
-650
-1079
-716
-239
-621
-1089
-707
-268
-640
-1070
-688
-258
-659
-1089
-688
-249
-650
-1089
-697
-249
-631
-1041
-678
-277
-650
-1089
-697
-268
-650
-1060
-697
-268
-640
-1089
-707
-277
-659
-1079
-716
-277
-631
-1079
-726
-287
-659
-1098
-697
-277
-631
-1041
-707
-306
-564
-793
-268
353
95
-335
181
744
515
314
820
1193
525
-191
47
525
209
-459
-478
-325
-793
-1356
-1117
-678
-993
-1442
-1098
-621
-974
-1442
-1089
-564
-831
-1184
-1098
-1671
-2186
-1031
2749
9956
18127
25773
31128
27663
18193
10681
5335
2749
2520
2004
1727
1594
744
47
238
601
200
-296
57
467
104
-344
19
525
209
-211
181
677
410
-10
381
887
601
200
620
1164
878
515
964
1517
1298
945
1412
2004
1804
1517
2042
2720
2605
2348
2920
3665
3646
3522
4228
5068
5125
5106
5860
6777
6901
6834
7588
8476
8486
8266
8686
9058
8400
7426
7082
6739
5603
4285
3818
3570
2577
1594
1479
1536
935
248
419
830
372
-172
124
544
190
-306
38
477
143
-296
-1
467
143
-316
47
515
190
-287
28
534
219
-239
76
534
200
-268
57
544
229
-296
-10
448
85
-401
-96
343
-1
-506
-211
276
-67
-611
-277
181
-191
-678
-373
95
-239
-736
-440
47
-287
-793
-487
-20
-316
-793
-506
-20
-325
-821
-545
-48
-325
-831
-554
-77
-373
-860
-554
-86
-401
-879
-583
-86
-373
-879
-592
-115
-411
-898
-611
-115
-411
-879
-592
-125
-421
-907
-611
-153
-459
-936
-650
-163
-449
-926
-621
-134
-430
-917
-650
-163
-440
-936
-659
-163
-478
-974
-650
-201
-497
-936
-650
-182
-440
-926
-659
-144
-411
-936
-669
-144
-421
-926
-640
-134
-430
-936
-650
-163
-449
-955
-678
-172
-440
-936
-678
-182
-440
-955
-678
-153
-449
-974
-669
-144
-430
-936
-659
-172
-430
-898
-650
-163
-430
-926
-640
-153
-421
-926
-659
-134
-401
-907
-669
-144
-230
-554
-96
610
353
-96
343
954
878
591
878
1116
563
-125
95
715
295
-592
-621
-316
-726
-1308
-1051
-516
-783
-1289
-1031
-516
-755
-1308
-1031
-411
-592
-984
-1241
-1776
-1709
-287
4200
12275
20484
27682
30822
25152
16179
9182
4114
2653
2720
1956
1613
1546
887
162
286
735
400
-172
57
534
305
-153
95
639
429
-67
267
811
601
143
419
1011
859
381
696
1298
1145
715
1040
1670
1546
1155
1527
2166
2061
1699
2157
2835
2796
2558
3035
3846
3961
3808
4381
5269
5460
5364
6070
7035
7235
7159
7789
8686
8781
8438
8686
9049
8438
7340
6853
6567
5479
4133
3598
3426
2567
1536
1336
1508
1030
305
410
830
515
-48
104
610
372
-163
57
582
353
-191
47
582
343
-153
66
582
391
-144
66
582
353
-144
95
630
372
-163
66
563
334
-220
-10
515
257
-277
-86
391
162
-382
-211
286
38
-516
-316
190
-58
-602
-392
95
-144
-669
-468
47
-201
-736
-526
-20
-239
-764
-564
-39
-268
-802
-564
-58
-296
-793
-611
-96
-277
-821
-621
-77
-287
-850
-640
-106
-344
-850
-631
-144
-363
-888
-678
-106
-316
-869
-659
-125
-306
-841
-669
-153
-373
-898
-697
-172
-401
-936
-707
-191
-354
-898
-736
-182
-392
-926
-716
-191
-411
-926
-716
-191
-382
-936
-736
-191
-421
-936
-736
-220
-421
-955
-755
-230
-449
-984
-783
-249
-440
-965
-755
-239
-440
-946
-745
-230
-440
-974
-783
-249
-449
-984
-764
-277
-459
-974
-812
-249
-449
-1022
-850
-296
-497
-1041
-841
-296
-516
-1031
-831
-306
-459
-1041
-860
-306
-516
-1041
-850
-335
-516
-1051
-888
-344
-545
-1108
-869
-306
-497
-1003
-869
-382
-516
-907
-535
190
152
-354
-77
582
505
200
591
1116
677
-172
-153
400
238
-535
-716
-440
-774
-1404
-1261
-755
-965
-1499
-1337
-774
-946
-1537
-1318
-774
-869
-1299
-1070
-1022
-2206
-2416
-354
4295
11540
19262
26966
30307
24083
15024
8848
4152
1975
1718
1765
1861
1097
143
85
400
162
-421
-230
334
124
-449
-306
276
124
-421
-182
429
314
-230
-96
505
448
9
257
859
773
248
467
1164
1145
677
935
1670
1622
1183
1536
2290
2338
1918
2300
3159
3274
3054
3541
4438
4715
4543
5059
6166
6490
6280
6882
7894
8094
7856
8199
8724
8409
7464
6996
6872
5927
4486
3856
3665
2787
1594
1269
1441
906
76
19
458
200
-506
-411
162
19
-602
-506
114
-29
-621
-449
114
-10
-583
-516
38
-39
-564
-440
133
-10
-564
-421
76
-58
-545
-421
85
-1
-545
-497
-10
-134
-678
-554
-58
-258
-802
-755
-230
-325
-965
-907
-296
-382
-1022
-907
-382
-554
-1108
-993
-440
-602
-1156
-984
-459
-697
-1280
-1003
-449
-602
-1213
-1203
-573
-650
-1222
-1108
-545
-669
-1261
-1175
-602
-755
-1327
-1184
-669
-764
-1203
-1156
-602
-678
-1308
-1175
-631
-745
-1299
-1251
-678
-716
-1318
-1241
-669
-793
-1337
-1241
-688
-774
-1327
-1213
-669
-812
-1394
-1251
-697
-821
-1337
-1213
-659
-745
-1366
-1318
-707
-831
-1451
-1280
-659
-774
-1394
-1337
-774
-812
-1318
-1232
-736
-888
-1432
-1299
-793
-926
-1423
-1308
-745
-831
-1394
-1280
-802
-936
-1490
-1394
-669
-716
-1442
-1394
-802
-917
-1451
-1299
-707
-841
-1461
-1346
-841
-984
-1442
-1337
-821
-936
-1490
-1318
-755
-917
-1385
-1270
-831
-917
-1432
-1318
-573
-631
-1203
-917
-316
-516
-1299
-1308
-516
-430
-955
-1003
-659
-812
-1251
-1051
-678
-946
-1623
-1719
-1098
-1108
-1690
-1604
-1060
-1184
-1776
-1614
-926
-926
-1404
-1432
-1747
-2301
-1289
1813
7808
15416
22050
26947
25477
17525
10414
5517
2080
992
897
1107
1260
649
-134
-230
209
124
-487
-478
57
-39
-573
-411
181
85
-430
-335
229
276
-220
-134
525
439
-86
133
773
735
200
410
1069
1050
668
916
1613
1641
1193
1450
2185
2290
1947
2310
3188
3417
3140
3550
4495
4791
4658
5173
6128
6433
6280
6739
7674
7941
7579
7636
8046
7693
6672
6051
5803
4896
3512
2796
2682
2042
964
610
830
515
-268
-421
47
-77
-688
-621
-106
-182
-774
-745
-163
-258
-793
-707
-163
-201
-774
-736
-134
-172
-755
-678
-67
-125
-736
-688
-77
-163
-745
-650
-144
-220
-821
-793
-182
-277
-888
-860
-354
-421
-1003
-984
-421
-468
-1079
-1098
-526
-583
-1175
-1146
-602
-611
-1175
-1194
-621
-669
-1261
-1203
-631
-650
-1280
-1289
-669
-716
-1318
-1251
-697
-774
-1299
-1251
-697
-745
-1327
-1289
-726
-783
-1337
-1318
-764
-783
-1308
-1289
-774
-802
-1385
-1346
-764
-821
-1375
-1346
-774
-821
-1404
-1356
-802
-841
-1394
-1375
-821
-850
-1394
-1337
-783
-841
-1375
-1356
-812
-802
-1394
-1394
-802
-821
-1394
-1375
-802
-802
-1366
-1366
-821
-841
-1432
-1404
-793
-850
-1404
-1337
-802
-850
-1404
-1366
-802
-841
-1423
-1404
-831
-831
-1394
-1366
-812
-850
-1394
-1375
-802
-812
-1423
-1404
-802
-841
-1423
-1366
-812
-831
-1375
-1413
-831
-802
-1366
-1337
-783
-812
-1261
-1060
-335
-144
-640
-621
85
181
-220
9
735
572
-373
-526
-58
-48
-583
-860
-631
-860
-1556
-1671
-1156
-1156
-1747
-1728
-1108
-1108
-1709
-1690
-1089
-1031
-1499
-1451
-1490
-2368
-2301
-20
5316
13239
21152
28655
30832
23291
14070
7846
3503
2252
2052
1527
1460
906
-48
-220
200
124
-497
-545
9
9
-564
-545
57
66
-449
-421
162
209
-287
-258
391
467
-106
-1
649
696
238
314
1011
1126
649
782
1470
1632
1221
1384
2147
2348
1995
2205
3083
3417
3169
3522
4467
4906
4763
5145
6214
6681
6519
6977
7980
8361
8085
8237
8810
8571
7560
6939
6748
5908
4476
3655
3426
2749
1594
1069
1212
897
104
-125
286
209
-459
-526
19
-29
-631
-631
-48
-39
-611
-640
-77
-29
-602
-611
-29
-20
-554
-526
28
47
-516
-535
57
47
-506
-526
9
38
-545
-564
-10
-1
-535
-602
-48
-67
-678
-716
-182
-153
-755
-821
-268
-277
-850
-879
-335
-335
-917
-965
-421
-392
-974
-1012
-459
-440
-1003
-1060
-487
-430
-1041
-1079
-487
-478
-1031
-1070
-516
-487
-1041
-1070
-516
-487
-1060
-1079
-497
-478
-1060
-1070
-545
-535
-1079
-1117
-526
-516
-1089
-1127
-573
-516
-1089
-1117
-554
-535
-1127
-1146
-554
-535
-1108
-1165
-592
-526
-1127
-1175
-592
-564
-1108
-1136
-573
-526
-1117
-1165
-564
-535
-1117
-1127
-573
-554
-1108
-1136
-592
-554
-1089
-1146
-602
-554
-1117
-1136
-583
-554
-1098
-1136
-611
-592
-1136
-1136
-573
-583
-1146
-1127
-554
-535
-1117
-1136
-554
-564
-1127
-1127
-564
-526
-1127
-1175
-583
-554
-1108
-1108
-554
-545
-1117
-1117
-535
-497
-1079
-1136
-564
-545
-1117
-1098
-545
-545
-1127
-1136
-554
-554
-1127
-1108
-545
-545
-1108
-1117
-535
-554
-1098
-1089
-535
-526
-1051
-860
-86
85
-354
-335
343
486
57
248
1002
935
66
-191
238
305
-230
-487
-287
-526
-1241
-1394
-879
-860
-1394
-1404
-879
-831
-1394
-1451
-888
-841
-1327
-1203
-650
-1451
-2702
-1738
1422
7025
14719
23014
30259
29639
20723
12800
7273
3083
1947
2128
2185
1594
448
114
534
448
-182
-258
276
276
-306
-335
267
305
-239
-220
362
458
-48
-58
582
687
152
171
840
954
458
505
1183
1298
820
916
1622
1785
1355
1460
2205
2434
2061
2252
3073
3398
3140
3417
4333
4782
4620
5011
6004
6500
6414
6796
7817
8276
8046
8295
9001
8982
8180
7703
7636
6920
5517
4620
4371
3627
2367
1765
1861
1479
591
324
677
572
-86
-220
295
314
-268
-335
229
267
-306
-344
229
286
-296
-325
267
286
-249
-268
286
334
-230
-268
276
324
-230
-287
267
305
-258
-325
238
238
-363
-401
114
143
-430
-535
-1
9
-573
-631
-86
-39
-631
-736
-163
-134
-755
-812
-249
-211
-783
-850
-306
-249
-821
-907
-335
-287
-869
-946
-401
-335
-898
-965
-401
-354
-917
-993
-449
-373
-917
-993
-411
-344
-955
-1022
-449
-411
-965
-1012
-478
-421
-993
-1079
-468
-411
-984
-1031
-487
-430
-993
-1079
-478
-421
-1022
-1070
-506
-449
-1022
-1108
-535
-487
-1041
-1108
-535
-440
-1031
-1117
-564
-506
-1070
-1089
-545
-497
-1041
-1146
-583
-497
-1089
-1127
-573
-535
-1079
-1156
-583
-497
-1089
-1165
-592
-506
-1089
-1184
-583
-506
-1089
-1165
-573
-497
-1079
-1146
-583
-506
-1070
-1146
-554
-487
-1089
-1146
-583
-535
-1098
-1146
-573
-497
-1079
-1184
-602
-506
-1089
-1156
-564
-497
-1041
-1022
-277
-1
-382
-430
190
448
-39
38
868
1050
248
-134
238
276
-211
-401
-144
-401
-1203
-1413
-946
-879
-1423
-1490
-926
-869
-1451
-1528
-965
-879
-1346
-1356
-707
-1156
-2711
-2358
257
4830
12017
20351
28436
30593
23195
14614
8839
3837
1660
1880
2157
1670
525
19
391
400
-258
-440
124
181
-468
-526
95
181
-344
-430
152
305
-211
-239
334
496
38
-20
630
763
267
248
878
1116
677
658
1317
1527
1107
1183
1909
2176
1832
1947
2758
3092
2806
3073
3980
4457
4314
4639
5641
6185
6051
6385
7397
7932
7712
7894
8638
8762
8027
7445
7397
6786
5326
4352
4114
3417
2205
1517
1508
1202
295
-48
343
267
-392
-583
-58
28
-592
-726
-163
-86
-650
-716
-172
-96
-611
-716
-182
-48
-592
-678
-125
-39
-631
-736
-153
-29
-621
-793
-230
-86
-621
-745
-220
-125
-707
-879
-344
-258
-841
-965
-478
-401
-965
-1108
-487
-373
-1041
-1165
-611
-564
-1127
-1280
-726
-602
-1175
-1280
-793
-755
-1280
-1385
-860
-716
-1299
-1442
-850
-764
-1375
-1528
-926
-802
-1413
-1499
-946
-821
-1375
-1499
-974
-898
-1442
-1566
-1003
-888
-1490
-1614
-1031
-869
-1451
-1604
-1051
-993
-1471
-1576
-1070
-917
-1499
-1604
-1041
-955
-1471
-1585
-1070
-946
-1556
-1652
-1051
-984
-1528
-1614
-1108
-1012
-1547
-1623
-1051
-955
-1528
-1690
-1098
-955
-1576
-1681
-1070
-955
-1547
-1690
-1146
-1003
-1576
-1747
-1194
-1041
-1547
-1642
-1079
-993
-1623
-1738
-1127
-1041
-1661
-1786
-1213
-1031
-1566
-1757
-1184
-1003
-1585
-1766
-1222
-1041
-1633
-1824
-1232
-1127
-1671
-1719
-1203
-1117
-1661
-1786
-1213
-965
-1308
-1299
-583
-382
-907
-793
-125
104
-191
-220
143
-48
-783
-888
-316
-296
-1165
-1690
-1327
-1270
-1938
-2091
-1556
-1451
-1967
-2139
-1576
-1394
-2005
-2139
-1432
-1156
-1738
-2626
-2797
-1528
601
5421
13497
21095
26231
25715
18995
12017
6195
1546
649
1279
840
314
305
104
-688
-984
-430
-287
-821
-965
-497
-430
-926
-926
-335
-211
-745
-907
-287
-96
-592
-678
-115
152
-249
-411
133
400
-1
-1
630
840
439
486
1212
1431
1011
1097
1794
2185
1909
1966
2892
3379
3188
3436
4305
4896
4725
4954
5985
6548
6481
6729
7531
7903
7435
7245
7512
7168
6004
5183
4973
4266
2854
1937
1947
1536
448
-20
267
162
-554
-821
-401
-325
-869
-1031
-516
-363
-965
-1184
-497
-354
-955
-1070
-592
-392
-879
-1089
-611
-449
-907
-1108
-506
-335
-984
-1108
-602
-468
-993
-1213
-631
-430
-1060
-1251
-707
-592
-1175
-1404
-907
-736
-1241
-1404
-974
-860
-1394
-1566
-1003
-860
-1451
-1642
-1127
-965
-1471
-1690
-1203
-984
-1518
-1738
-1194
-984
-1604
-1833
-1241
-1041
-1604
-1824
-1222
-993
-1614
-1824
-1299
-1136
-1652
-1824
-1241
-1070
-1623
-1766
-1261
-1098
-1661
-1862
-1280
-1108
-1700
-1852
-1299
-1136
-1690
-1852
-1318
-1136
-1652
-1833
-1261
-1108
-1690
-1881
-1337
-1117
-1671
-1900
-1337
-1117
-1671
-1843
-1299
-1127
-1661
-1833
-1251
-1089
-1652
-1786
-1232
-1070
-1633
-1814
-1261
-1127
-1671
-1833
-1318
-1127
-1661
-1843
-1289
-1127
-1681
-1814
-1261
-1127
-1661
-1814
-1299
-1117
-1623
-1833
-1299
-1117
-1671
-1833
-1289
-1127
-1642
-1805
-1261
-1079
-1528
-1509
-793
-411
-869
-1031
-296
-10
-449
-373
276
229
-621
-926
-459
-249
-812
-1327
-1117
-1098
-1814
-2139
-1633
-1442
-1976
-2139
-1576
-1404
-1967
-2167
-1585
-1308
-1728
-1891
-2158
-2683
-2120
305
6118
14318
21907
28455
28694
20647
12399
6357
2415
1756
1517
964
906
525
-325
-688
-249
-106
-688
-965
-401
-211
-774
-917
-373
-153
-669
-812
-201
19
-468
-631
-20
238
-239
-354
257
544
104
-20
630
954
505
429
1107
1470
1107
1030
1775
2195
1890
1947
2739
3235
3035
3207
4123
4744
4629
4868
5870
6510
6424
6672
7636
8237
7932
7856
8390
8323
7330
6462
6223
5612
4190
3178
2997
2500
1374
687
801
715
-29
-421
-20
76
-526
-793
-306
-125
-659
-841
-316
-134
-659
-850
-344
-144
-650
-831
-296
-96
-621
-783
-230
-39
-573
-783
-220
-10
-545
-755
-249
-39
-573
-793
-258
-86
-650
-898
-401
-201
-755
-993
-497
