# aauwss ecg epoch, one sample per line
# source AAUWSS (Aalborg University Wearable Sleep Study) v1.1, Zenodo 10.5281/zenodo.16919071
# licence CC-BY-4.0 - Djanian S, Nielsen T D, Nielsen S H, Bruun A (2025)
# subject 08
# fs_hz 200.0
# samples 6000
# scale 0.1  (value = count * scale, arbitrary published units, NOT mV)
# source_row 437 of 875
# stage_label N1
# epoch 438.0
195695
195553
195188
195188
195330
195411
195512
195695
195756
195817
195979
196101
196283
196425
196385
196364
196364
196405
196466
196405
196405
196466
196445
196445
196425
196445
196466
196425
196385
196445
196466
196324
196405
196689
196831
196993
196344
193991
190746
186345
181193
180017
184418
189083
192004
194093
194945
195391
195472
195391
195452
195330
195350
195472
195452
195452
195512
195472
195431
195391
195411
195411
195411
195371
195350
195391
195371
195289
195289
195289
195269
195208
195107
195087
195026
194843
194782
194762
194640
194498
194377
194214
193991
193809
193667
193403
193099
192795
192490
192186
191862
191497
191152
190888
190604
190340
190178
190097
190178
190462
190827
191334
191862
192450
193079
193667
194214
194640
195026
195452
195695
195938
196141
196202
196222
196344
196486
196547
196567
196506
196547
196608
196567
196547
196547
196587
196608
196628
196648
196669
196669
196669
196709
196709
196709
196750
196811
196912
196932
196892
196932
196973
196993
196953
196953
196993
197013
197034
197074
197115
197054
197074
197155
197196
197257
197176
197135
197237
197257
197297
197338
197277
197338
197439
197399
197378
197419
197419
197399
197480
197520
197500
197480
197520
197541
197541
197581
197622
197622
197581
197622
197662
197683
197683
197683
197683
197662
197662
197744
197764
197602
197541
197419
197277
197318
197297
197297
197378
197196
196851
196669
196770
196993
197054
197115
197338
197520
197642
197906
198068
198068
198048
198088
198210
198190
198129
198129
198190
198251
198230
198230
198311
198230
198170
198210
198170
198190
198210
198129
198068
198129
198311
198474
198677
197906
195249
191415
186974
181842
181578
188251
192896
194214
195817
196547
197034
197500
197358
197176
197115
197054
197054
197155
197196
197135
197054
197054
197034
197034
197034
196932
196973
196973
196851
196811
196831
196709
196587
196689
196669
196486
196385
196364
196344
196182
196101
196080
195878
195634
195472
195330
195147
194924
194620
194296
193991
193768
193403
193018
192774
192470
192186
191963
191801
191720
191801
192064
192389
192795
193322
193930
194600
195107
195492
195999
196466
196729
196912
197155
197378
197460
197520
197602
197662
197662
197662
197703
197703
197662
197602
197683
197744
197642
197683
197744
197723
197845
197825
197683
197764
197886
197845
197946
197987
197967
197926
197946
198068
198088
198028
198088
198210
198210
198210
198251
198251
198311
198311
198352
198433
198393
198372
198433
198433
198474
198474
198433
198474
198494
198514
198494
198514
198575
198535
198535
198575
198595
198616
198616
198636
198595
198535
198535
198575
198555
198514
198514
198535
198494
198453
198453
198413
198271
198068
197906
197906
197865
197784
197845
197744
197358
197237
197378
197439
197439
197541
197602
197642
197764
197926
198109
198190
198109
198028
198007
198048
198048
197987
197926
197946
197865
197784
197764
197723
197662
197581
197500
197500
197439
197277
197277
197541
197662
197703
197054
194742
191395
187055
181639
179773
184316
189489
192206
194255
195229
195533
195715
195614
195573
195492
195452
195512
195553
195512
195512
195492
195452
195411
195371
195350
195330
195269
195208
195168
195127
195046
194985
194945
194904
194803
194721
194701
194600
194458
194356
194296
194194
194032
193890
193748
193545
193322
193099
192855
192572
192186
191902
191639
191253
190908
190604
190320
190077
189833
189671
189651
189752
189996
190422
190949
191497
192004
192572
193139
193586
193951
194356
194661
194863
195046
195208
195330
195411
195411
195452
195533
195512
195492
195533
195533
195512
195472
195452
195512
195512
195452
195452
195512
195512
195472
195492
195533
195573
195553
195533
195573
195594
195512
195533
195614
195614
195614
195614
195614
195634
195654
195675
195715
195736
195736
195756
195796
195776
195756
195796
195837
195837
195796
195817
195898
195898
195898
195878
195938
195918
195878
195918
195938
195959
195938
195938
195999
195959
195979
195979
195918
195979
195999
195938
195979
195999
195918
195918
195878
195675
195472
195350
195452
195452
195391
195472
195249
194985
195026
195147
195330
195411
195492
195553
195573
195776
195959
196080
196182
196182
196162
196202
196182
196162
196182
196162
196202
196162
196162
196162
196162
196121
196020
196080
196121
196101
195979
195959
196304
196425
196486
196060
193951
190827
186710
181294
178597
181741
186710
190604
193363
194356
194681
194661
194539
194661
194620
194681
194823
194823
194803
194823
194863
194863
194762
194762
194782
194782
194742
194661
194661
194640
194559
194539
194559
194438
194336
194316
194235
194174
194093
193951
193910
193829
193626
193484
193383
193139
192937
192734
192490
192186
191862
191537
191213
190868
190503
190239
189935
189549
189306
189184
189164
189225
189428
189793
190320
190929
191537
192085
192632
193160
193586
193991
194356
194600
194762
194965
195087
195147
195229
195229
195269
195289
195188
195229
195371
195330
195269
195269
195269
195269
195249
195249
195269
195269
195208
195249
195350
195330
195310
195330
195391
195411
195411
195472
195533
195533
195492
195553
195654
195634
195614
195634
195654
195634
195654
195756
195756
195756
195756
195736
195817
195837
195796
195837
195837
195878
195878
195837
195938
195938
195898
195918
195938
195959
195959
195979
195999
196020
195959
195979
195979
195959
196020
195979
195979
195796
195573
195553
195492
195452
195472
195492
195472
195188
194965
195046
195269
195411
195472
195553
195654
195817
195999
196182
196304
196283
196283
196283
196324
196364
196304
196283
196324
196324
196263
196283
196304
196283
196222
196202
196222
196202
196182
196101
196040
196263
196466
196587
196587
194985
192044
188312
182897
178820
180747
185980
189854
192511
194052
194640
194843
194681
194661
194661
194681
194782
194803
194803
194843
194823
194762
194742
194762
194742
194681
194640
194661
194640
194579
194559
194559
194539
194458
194397
194336
194316
194235
194113
194052
193930
193849
193788
193667
193505
193342
193139
192937
192632
192348
192105
191801
191456
191091
190766
190462
190138
189894
189671
189489
189428
189549
189793
190219
190726
191294
191922
192531
193099
193626
194032
194438
194762
194965
195208
195411
195512
195594
195654
195715
195776
195796
195817
195857
195817
195776
195817
195817
195857
195898
195857
195898
195857
195878
195938
195999
196040
196040
196080
196101
196162
196182
196141
196162
196263
196304
196263
196304
196364
196324
196283
196364
196405
196425
196445
196486
196506
196486
196527
196587
196628
196669
196628
196648
196689
196689
196729
196770
196770
196790
196831
196871
196912
196851
196851
196953
196993
196973
196912
196973
197054
196973
197034
197095
197074
197074
197034
197074
197176
197155
197095
197135
197135
197115
197135
197176
197074
196912
196770
196770
196831
196729
196750
196770
196445
196304
196385
196466
196567
196669
196811
196973
197095
197277
197500
197602
197561
197541
197561
197683
197703
197602
197662
197723
197683
197662
197662
197703
197683
197662
197683
197683
197642
197602
197622
197561
197683
197886
198048
198149
196973
193991
190077
185229
180584
182207
189002
192653
194133
195573
196040
196628
196912
196709
196567
196466
196466
196527
196547
196567
196628
196547
196466
196527
196547
196486
196445
196445
196506
196486
196425
196364
196283
196304
196304
196202
196141
196020
195918
195938
195857
195715
195594
195512
195330
195168
195026
194742
194458
194235
193890
193586
193302
192977
192673
192348
192085
191821
191598
191537
191517
191557
191740
192166
192754
193302
193890
194498
194985
195431
195878
196304
196608
196790
196912
197176
197358
197277
197338
197358
197338
197399
197419
197480
197460
197378
197460
197460
197480
197500
197480
197581
197541
197460
197500
197561
197622
197642
197683
197723
197744
197744
197825
197946
197865
197845
197926
197946
197987
198088
198068
198048
198088
198088
198129
198251
198251
198170
198190
198271
198352
198372
198372
198352
198393
198474
198433
198413
198453
198433
198413
198494
198555
198514
198474
198575
198616
198575
198595
198595
198595
198616
198697
198677
198616
198677
198697
198677
198737
198697
198677
198798
198737
198656
198758
198717
198595
198494
198311
198251
198332
198271
198271
198271
198007
197764
197804
198007
198007
198109
198311
198332
198575
198717
198900
199082
199001
199042
199123
199123
199123
199143
199204
199224
199224
199204
199143
199204
199163
199082
199103
199123
199062
199021
199021
198940
198961
199143
199265
199447
198758
196243
192369
187744
182471
181416
187704
193058
194945
196608
197216
197581
198048
197865
197662
197602
197520
197541
197581
197561
197520
197480
197439
197399
197358
197297
197257
197237
197176
197074
196973
196912
196851
196750
196669
196628
196547
196425
196283
196182
196101
195918
195715
195573
195431
195269
195066
194863
194559
194255
193951
193687
193383
193018
192653
192348
192024
191740
191476
191294
191192
191192
191355
191659
192105
192592
193119
193667
194174
194620
195046
195452
195776
195979
196141
196304
196425
196486
196527
196567
196608
196608
196587
196567
196587
196587
196547
196648
196689
196628
196628
196648
196669
196689
196669
196689
196709
196689
196689
196689
196709
196689
196648
196689
196729
196709
196709
196750
196811
196790
196790
196770
196831
196851
196831
196892
196892
196912
196912
196932
196953
196973
197013
197054
197095
197034
197013
197054
197074
197074
197074
197115
197115
197054
197074
197095
197115
197074
197074
197135
197135
197135
197115
197135
197135
197095
197115
197216
197155
197115
197176
197216
197196
197155
197155
197196
197216
197176
197135
197155
197196
197115
196973
196892
196709
196608
196669
196608
196608
196689
196405
196182
196304
196385
196506
196648
196729
196750
196750
196932
197115
197277
197358
197358
197399
197378
197318
197378
197378
197338
197358
197378
197358
197358
197318
197358
197338
197237
197277
197318
197196
197257
197500
197683
197825
196993
194478
191233
186872
181558
179976
183830
188779
192713
195026
195756
195938
195695
195695
195796
195878
196020
196060
196080
196101
196040
195999
196080
196080
195979
195938
195938
195999
195959
195857
195878
195857
195817
195796
195736
195675
195594
195533
195492
195391
195269
195188
195087
194945
194803
194661
194478
194235
194052
193788
193525
193281
192876
192551
192247
191882
191578
191253
190989
190787
190624
190564
190604
190868
191314
191821
192450
193018
193565
194154
194620
195087
195431
195695
196020
196182
196304
196445
196506
196628
196628
196648
196709
196689
196669
196648
196689
196689
196648
196648
196669
196689
196628
196567
196669
196790
196770
196729
196750
196871
196912
196851
196953
197034
197074
197115
197176
197257
197277
197297
197338
197378
197399
197500
197581
197561
197581
197642
197622
197662
197703
197703
197804
197865
197804
197845
198007
198068
198028
198048
198149
198190
198230
198230
198210
198332
198372
198251
198332
198433
198453
198474
198453
198494
198494
198433
198474
198474
198311
198170
198251
198291
198332
198433
198129
197865
197987
198048
198210
198393
198433
198514
198656
198879
199143
199244
199244
199244
199346
199427
199427
199468
199468
199488
199589
199589
199508
199508
199610
199711
199731
199670
199610
199650
199569
199650
199934
200036
200218
199447
196912
193342
188900
183850
182816
188373
193505
195614
197439
198271
198656
198981
198940
198940
198778
198717
198859
198981
198920
198819
198961
199021
198879
198920
199001
198920
198839
198839
198900
198819
198737
198737
198717
198656
198616
198595
198595
198575
198474
198453
198311
198251
198190
197926
197784
197642
197358
197176
196993
196790
196445
195999
195776
195492
195188
195005
194823
194458
194255
194316
194458
194681
194985
195512
196121
196608
197216
197804
198291
198798
199143
199447
199670
199894
200096
200177
200238
200259
200319
200461
200543
200482
200421
200502
200603
200543
200502
200502
200543
200624
200543
200482
200522
200624
200624
200522
200624
200705
200603
200563
200603
200705
200705
200664
200745
200786
200766
200745
200786
200827
200786
200806
200847
200887
200887
200827
200887
200908
200928
200969
200928
200948
200908
200908
200948
200948
200969
200928
200908
200827
200563
200401
200401
200380
200299
200279
200218
199954
199670
199711
199954
200056
200015
200036
200177
200360
200502
200664
200786
200766
200725
200725
200745
200766
200745
200705
200685
200664
200603
200563
200583
200543
200441
200421
200441
200401
200279
200177
200279
200482
200461
200401
199386
196628
192916
188434
183708
183424
189083
193890
196101
197825
198332
198494
198717
198595
198453
198413
198413
198453
198413
198332
198311
198271
198230
198190
198149
198109
198028
197946
197946
197886
197744
197662
197662
197561
197480
197419
197358
197237
197074
196973
196892
196770
196608
196425
196263
196080
195837
195594
195310
195046
194742
194397
194072
193748
193342
192997
192734
192450
192206
192044
192004
192085
192308
192673
193180
193728
194235
194742
195269
195695
196101
196425
196669
196892
197034
197135
197257
197277
197277
197277
197297
197297
197277
197237
197237
197237
197196
197135
197155
197155
197074
197034
197054
197034
196993
196953
196932
196953
196953
196932
196932
196932
196871
196851
196892
196892
196871
196871
196871
196871
196851
196831
196871
196892
196892
196871
196892
196912
196892
196871
196912
196932
196871
196851
196892
196871
196831
196831
196811
196709
196506
196304
196243
196283
196202
196243
196324
196020
195817
195898
196040
196141
196182
196283
196344
196425
196567
196729
196912
196953
196892
196912
196953
196953
196892
196871
196892
196912
196871
196831
196811
196831
196770
196729
196750
196750
196648
196547
196729
196953
197034
196932
195411
192450
188819
183749
179712
181335
186385
190340
193200
194681
195107
195188
195066
195087
195107
195107
195188
195269
195269
195229
195249
195229
195188
195188
195168
195147
195127
195046
195046
195046
194945
194904
194904
194843
194762
194681
194640
194620
194498
194377
194296
194194
194032
193870
193748
193586
193363
193119
192876
192592
192247
191922
191618
191273
190908
190543
190259
189996
189773
189631
189671
189854
190138
190584
191172
191801
192348
192876
193444
193910
194255
194579
194884
195107
195229
195350
195472
195533
195594
195654
195715
195796
195715
195675
195736
195756
195796
195776
195796
195756
195756
195817
195817
195837
195837
195878
196020
196121
196182
196182
196263
196324
196324
196405
196527
196527
196486
196506
196608
196648
196628
196689
196770
196831
196831
196871
196892
196953
197034
197013
197034
197074
197095
197095
197095
196973
196851
196750
196790
196811
196831
196973
196831
196567
196547
196608
196790
196973
197074
197216
197378
197581
197744
197886
197967
198068
198088
198109
198230
198170
198170
198251
198251
198352
198311
198291
198332
198311
198352
198251
198210
198372
198311
198251
198494
198677
198859
198555
196669
193322
189184
184154
181376
185432
191314
193809
195512
196831
197277
197703
197764
197622
197520
197460
197642
197703
197602
197642
197723
197744
197703
197683
197744
197723
197622
197581
197642
197642
197581
197561
197561
197500
197460
197480
197419
197358
197237
197095
197074
196953
196811
196729
196608
196466
196222
195959
195776
195533
195249
194904
194620
194356
194032
193667
193505
193403
193261
193322
193545
193829
194275
194782
195371
196020
196527
196973
197439
197825
198190
198474
198737
198879
198879
199042
199184
199244
199285
199204
199285
199285
199123
199244
199386
199407
199427
199346
199346
199326
199265
199386
199549
199447
199427
199468
199407
199468
199528
199528
199569
199528
199610
199691
199691
199711
199691
199691
199792
199792
199792
199833
199833
199914
199954
199975
200015
200015
200015
199975
199853
199833
199772
199670
199670
199670
199650
199427
199143
199123
199305
199488
199589
199610
199711
199975
200198
200380
200461
200522
200603
200624
200624
200644
200644
200644
200644
200644
200664
200664
200624
200563
200583
200522
200522
200502
200461
200441
200319
200360
200644
200766
200725
199833
197277
193484
189083
184215
183201
188900
194154
196243
197946
198636
198839
199103
199042
198961
198879
198859
198940
198961
198920
198859
198920
198981
198859
198798
198778
198717
198737
198677
198616
198595
198555
198514
198474
198393
198271
198190
198149
198109
197967
197825
197703
197602
197480
197297
197095
196912
196669
196385
196141
195837
195492
195188
194924
194620
194255
193991
193809
193626
193505
193545
193748
194093
194458
194965
195533
196121
196608
197013
197439
197804
198028
198210
198413
198555
198616
198656
198717
198758
198737
198737
198737
198737
198697
198656
198677
198677
198656
198636
198616
198636
198595
198555
198575
198575
198535
198535
198535
198535
198514
198494
198494
198514
198514
198494
198474
198494
198494
198494
198535
198514
198474
198494
198535
198535
198514
198494
198514
198555
198514
198453
198453
198453
198413
198291
198109
197987
197845
197825
197825
197845
197906
197622
197419
197500
197581
197642
197723
197886
197906
197926
198129
198251
198413
198474
198474
198494
198453
198433
198453
198474
198433
198393
198413
198372
198352
198311
198291
198311
198251
198190
198190
198068
198088
198332
198494
198616
197967
195512
192247
188028
182856
181213
185209
190077
193484
195736
196486
196709
196608
196547
196628
196648
196648
196689
196770
196770
196729
196689
196669
196648
196608
196567
196567
196547
196506
196425
196405
196385
196304
196243
196202
196162
196060
195938
195898
195857
195715
195594
195492
195391
195208
194985
194823
194620
194336
194032
193748
193444
193079
192713
192389
192105
191780
191476
191314
191172
191111
191253
191598
192044
192551
193139
193728
194275
194782
195188
195614
195959
196202
196364
196527
196669
196729
196770
196871
196892
196871
196851
196871
196871
196831
196831
196851
196871
196811
196750
196790
196790
196811
196811
196811
196851
196871
196851
196912
196953
196973
196973
197013
197074
197074
197095
197155
197196
197135
197135
197196
197196
197196
197216
197196
197257
197277
197216
197277
197297
197257
197237
197257
197297
197257
197237
197216
197115
196912
196790
196770
196811
196750
196811
196831
196486
196344
196466
196567
196689
196790
196892
196953
197074
197237
197399
197541
197561
197561
197520
197561
197622
197541
197541
197581
197581
197581
197541
197541
197520
197480
197439
197439
197439
197399
197277
197358
197622
197703
197825
196993
194478
191273
186669
181599
181112
185675
190158
193058
195005
195837
196141
196101
196060
196040
195938
196080
196141
196162
196202
196182
196222
196202
196141
196182
196182
196121
196101
196101
196101
196080
195979
195959
195999
195938
195918
195837
195756
195695
195594
195492
195431
195330
195147
195087
194904
194661
194519
194275
194012
193707
193342
193058
192713
192348
192064
191841
191639
191395
191273
191355
191598
191983
192450
193058
193728
194296
194803
195350
195878
196202
196466
196770
197013
197155
197297
197378
197480
197500
197460
197561
197602
197581
197622
197642
197683
197622
197561
197642
197744
197723
197784
197804
197804
197804
197825
197946
198028
198028
198007
198028
198170
198190
198210
198251
198230
198311
198291
198311
198393
198393
198453
198494
198474
198535
198616
198717
198758
198737
198697
198636
198737
198778
198737
198819
198697
198494
198393
198453
198555
198494
198494
198372
198230
198251
198251
198332
198474
198555
198636
198920
199143
199305
199488
199549
199549
199569
199589
199610
199752
199752
199711
199812
199772
199752
199812
199752
199731
199772
199772
199752
199833
199833
199650
199610
199833
200076
200238
199934
198068
194600
190442
185452
182572
186832
192957
195330
196892
198007
198352
198940
199082
198879
198737
198677
198737
198798
198839
198839
198778
198758
198758
198798
198798
198778
198737
198697
198636
198636
198616
198555
198595
198514
198332
198332
198291
198230
198149
198068
197987
197784
197662
197622
197520
197297
196932
196729
196587
196243
195959
195776
195391
194985
194823
194661
194458
194336
194174
194296
194600
194863
195289
195857
196506
197013
197378
197886
198393
198636
198859
199143
199346
199447
199549
199630
199731
199691
199610
199792
199812
199691
199711
199752
199691
199711
199711
199711
199752
199691
199711
199772
199792
199752
199711
199731
199772
199731
199711
199731
199772
199792
199772
199812
199853
199873
199853
199873
199873
199894
199954
199995
200015
199995
200015
200056
200056
200036
200056
200117
200137
200076
200036
199975
199812
199650
199508
199549
199549
199589
199589
199285
199103
199123
199184
199305
199386
199468
199447
199630
199914
200056
200157
200177
200177
200198
200157
200198
200238
200198
200157
200198
200177
200137
200137
200117
200137
200096
200015
199975
199975
199934
199812
199975
200218
200238
200076
198616
195573
191740
186913
182734
184337
190361
194275
196445
197946
198251
198433
198514
198453
198433
198291
198291
198352
198291
198271
198271
198271
198210
198170
198149
198129
198068
197967
197967
197967
197906
197825
197784
197744
197622
197520
197439
197399
197277
197155
197054
196953
196770
196587
196466
196283
196020
195776
195533
195249
194924
194600
194275
194012
193646
193302
193058
192896
192713
192632
192734
192997
193342
193788
194336
194924
195411
195857
196304
196689
196973
197216
197419
197581
197662
197703
197744
197784
197784
197764
197804
197784
197744
197703
197683
197744
197723
197662
197703
197703
197642
197622
197642
197683
197622
197602
197642
197642
197642
197642
197642
197683
197683
197602
197642
197683
197622
197662
197703
197723
197723
197683
197703
197744
197723
197703
197723
197744
197744
197744
197744
197784
197784
197764
197764
197764
197723
197723
197723
197642
197480
197338
197216
197176
197155
197115
197176
197054
196729
196689
196871
197034
197054
197115
197196
197257
197378
197500
197683
197845
197825
197764
197804
197825
197784
197784
197804
197804
197784
197744
197723
197703
197703
197642
197642
197662
197581
197541
197500
197480
197744
197886
198007
197622
195431
192206
188150
182876
180443
183749
188758
192409
194843
195837
196101
196040
195938
195979
195999
196080
196121
196141
196141
196162
196121
196080
196080
196060
196020
195979
195938
195938
195898
195837
195796
195776
195715
195634
195634
195573
195492
195391
195310
195249
195147
195005
194863
194721
194519
194275
194052
193849
193525
193221
192937
192612
192288
191943
191618
191334
191010
190766
190685
190685
190787
191050
191497
192044
192612
193180
193728
194275
194701
195046
195391
195695
195898
195999
196141
196263
196283
196283
196324
196364
196304
196263
196283
196304
196263
196243
196263
196263
196263
196222
196263
196304
196283
196283
196304
196344
196385
196385
196425
196486
196506
196506
196547
196587
196567
196547
196608
196628
196608
196628
196628
196669
196689
196648
196669
196709
196709
196689
196709
196729
196709
196709
196729
196750
196770
196750
196790
196831
196811
196770
196811
196831
196790
196770
196770
196709
196567
196385
196324
196304
196263
196243
196243
196162
195938
195715
195776
195959
196141
196243
196283
196405
196567
196750
196932
197013
196993
196973
197034
197074
197074
197074
197095
197074
197074
197054
197054
197074
197034
196953
196953
196993
196912
196871
196912
196831
196750
196973
197216
197439
197216
195371
192409
188596
183242
179935
182653
187866
191375
193687
195026
195634
195756
195634
195675
195675
195614
195675
195776
195837
195817
195776
195756
195756
195796
195736
195756
195776
195715
195634
195573
195614
195634
195553
195533
195573
195492
195371
195330
195229
195127
195066
195046
194985
194823
194600
194397
194214
194032
193788
193525
193221
192835
192470
192267
192044
191740
191415
191131
191030
191030
191131
191456
191882
192328
192896
193505
194093
194661
195087
195472
195837
196121
196344
196587
196689
196709
196729
196831
197013
196993
196953
196973
197034
196993
196932
197054
197115
197095
197115
197135
197196
197237
197257
197338
197318
197297
197338
197399
197460
197439
197439
197439
197500
197581
197561
197541
197662
197642
197642
197703
197703
197784
197764
197764
197906
197906
197804
197865
197967
197967
198007
198048
198048
198068
198068
198048
198149
198210
198149
198210
198210
198190
198190
198190
198190
198088
197906
197804
197865
197886
197906
197946
197744
197460
197419
197602
197683
197764
197946
198068
198210
198413
198595
198737
198819
198717
198737
198879
198879
198839
198798
198859
198920
198839
198839
198940
198900
198839
198839
198839
198900
198879
198798
198798
198717
198819
199103
199285
199204
197703
194438
190482
185554
181680
184824
191436
194194
195573
196932
197338
197865
198088
197845
197784
197723
197622
197703
197784
197723
197703
197703
197723
197662
197642
197703
197703
197683
197541
197500
197500
197460
197500
197460
197358
197297
197155
197095
197074
197054
196953
196770
196709
196587
196425
196304
196080
195878
195654
195371
195087
194823
194579
194296
194012
193849
193687
193484
193403
193464
193545
193809
194356
194843
195330
195898
196364
196871
197257
197541
197987
198230
198372
198514
198595
198758
198798
198798
198900
198900
198798
198859
198961
199001
198981
198940
198981
199042
199082
199021
198981
199021
199103
199062
199103
199163
199103
199082
199204
199244
199204
199224
199244
199265
199305
199346
199386
199427
199427
199407
199427
199488
199488
199468
199549
199610
199610
199630
199610
199650
199670
199630
199711
199752
199752
199731
199772
199812
199772
199711
199731
199731
199711
199752
199711
199691
199670
199488
199346
199204
199163
199163
199123
199244
199062
198717
198737
198839
198940
198981
199082
199184
199184
199346
199630
199792
199772
199731
199752
199772
199772
199772
199752
199752
199711
199650
199691
199691
199630
199589
199528
199528
199528
199468
199407
199305
199386
199610
199731
199752
198433
195472
191780
187095
182633
183566
189407
193525
195675
197277
197703
197946
198048
197906
197865
197825
197784
197825
197845
197845
197804
197723
197683
197683
197662
197581
197541
197520
197480
197439
197378
197338
197297
197176
197135
197095
196993
196851
196770
196669
196547
196405
196283
196162
195959
195736
195594
195391
195127
194843
194559
194255
193930
193606
193342
193079
192815
192531
192348
192308
192328
192450
192754
193200
193667
194194
194742
195229
195675
195999
196364
196648
196851
197013
197135
197257
197297
197277
197318
197338
197338
197318
197318
197338
197338
197297
197297
197297
197277
197277
197277
197318
197277
197237
197277
197277
197277
197257
197257
197297
197297
197277
197318
197358
197358
197358
197378
197419
197419
197399
197439
197500
197480
197439
197480
197541
197541
197541
197541
197561
197561
197480
197520
197561
197581
197581
197561
197581
197581
197520
197541
197581
197561
197500
197480
197399
197216
197054
196993
197034
196993
197034
196993
196689
196608
196689
196811
196953
197034
197115
197135
197277
197439
197602
197723
197744
197744
197723
197744
197825
197804
197764
197764
197784
197764
197703
197662
197683
197662
197581
197581
197581
197541
197439
197541
197845
197967
197987
196953
194255
190766
186041
181294
181315
186081
190564
193545
195431
196060
196182
196121
196162
196162
196121
196202
196263
196304
196283
196243
196283
196263
196202
196202
196202
196141
196080
196060
196060
195999
195918
195898
195878
195776
195695
195654
195594
195492
195371
195310
195229
195107
194945
194782
194661
194458
194194
193971
193748
193464
193099
192774
192511
192166
191841
191598
191334
191152
191010
191030
191273
191578
192004
192531
193139
193728
194174
194701
195147
195472
195756
195979
196222
196405
196486
196567
196709
196790
196689
196709
196790
196790
196729
196729
196729
196729
196770
196790
196871
196932
196871
196973
197074
197013
197054
197155
197216
197277
197277
197297
197399
197419
197399
197460
197541
197581
197581
197622
197703
197703
197723
197784
197825
197845
197845
197886
197946
197926
197926
197967
198007
198048
198007
198007
197987
197825
197662
197602
197662
197642
197642
197723
197480
197216
197237
197358
197399
197541
197723
197804
197987
198149
198311
198453
198474
198494
198514
198514
198535
198555
198535
198555
198555
198575
198514
198535
198535
198494
198453
198433
198453
198433
198311
198291
198535
198677
198819
198514
196547
193383
189387
184276
181862
185736
191192
193768
195371
196567
196993
197318
197338
197216
197115
197074
197155
197176
197155
197155
197155
197115
197074
197054
197034
196993
196932
196892
196871
196790
196770
196729
196669
196628
196567
196466
196405
196324
196222
196141
196040
195898
195756
195614
195472
195269
195026
194803
194579
194275
193991
193707
193423
193139
192835
192572
192369
192166
192024
192064
192288
192612
192997
193525
194072
194600
195087
195533
195979
196324
196567
196790
196973
197095
197155
197237
197338
197378
197378
197358
197399
197439
197378
197419
197460
197419
197419
197439
197439
197439
197419
197439
197480
197460
197439
197439
197460
197480
197460
197460
197520
197541
197520
197541
197581
197602
197581
197642
197703
197683
197662
197723
197764
197764
197744
197764
197825
197825
197825
197825
197825
197845
197784
197744
197683
197520
197338
197318
197338
197297
197460
197358
197013
197013
197095
197196
197257
197399
197500
197520
197703
197886
198028
198170
198190
198190
198170
198210
198230
198271
198190
198210
198251
198210
198190
198170
198210
198170
198109
198129
198129
198048
198007
198251
198474
198636
198311
196324
193241
189286
184033
181193
184398
189651
192835
194965
196263
196689
196831
196770
196770
196729
196689
196750
196831
196831
196770
196770
196750
196729
196709
196669
196648
196628
196567
196527
196506
196466
196364
196304
196304
196222
196141
196060
195999
195918
195776
195675
195614
195452
195269
195087
194945
194721
194438
194194
193910
193606
193302
192977
192713
192409
192085
191841
191659
191537
191497
191639
191983
192409
192896
193484
194093
194620
195107
195512
195878
196222
196425
196628
196790
196892
196953
196993
197054
197074
197034
197054
197074
197054
197054
197074
197074
197054
196993
196993
197013
196993
196993
197013
197054
197034
197034
197095
197115
197115
197115
197155
197216
197237
197237
197277
197297
197338
197318
197358
197419
197419
197419
197439
197460
197460
197399
197297
197196
197034
196953
197013
197013
197095
197013
196689
196648
196770
196811
196892
197095
197237
197297
197480
197683
197845
197906
197906
197967
197987
197946
197987
198048
198048
198028
198007
198048
198088
198048
198007
198007
198007
197967
197946
197987
197865
197784
198068
198311
198453
197967
195715
192531
188393
183160
181396
185574
190543
193180
195046
196222
196669
196831
196770
196729
196709
196628
196689
196770
196750
196709
196729
196729
196709
196648
196608
196628
196587
196506
196486
196466
196425
196344
196304
196304
196202
196121
196060
195999
195898
195756
195675
195573
195411
195229
195066
194924
194701
194417
194154
193910
193626
193302
192997
192713
192450
192146
191922
191801
191740
191780
191963
192369
192855
193363
193971
194539
195026
195431
195837
196202
196466
196648
196831
196953
197034
197074
197155
197176
197196
197196
197196
197216
197216
197176
197196
197216
197216
197176
197176
197196
197216
197176
197216
197257
197257
197257
197257
197297
197297
197318
197358
197378
197419
197439
197460
197520
197541
197561
197622
197683
197662
197642
197683
197723
197703
197703
197744
197764
197804
197744
197703
197622
197439
197338
197318
197318
197338
197318
197257
197034
196770
196729
196973
197155
197257
197378
197520
197723
197946
198088
198210
198291
198271
198271
198332
198352
198372
198413
198413
198453
198453
198372
198352
198413
198413
198393
198413
198413
198332
198332
198311
198291
198514
198737
198900
198839
197155
194012
190280
185189
181842
184783
190300
193403
195269
196689
197297
197602
197622
197520
197480
197460
197541
197581
197561
197602
197622
197622
197622
197642
197581
197541
197561
197581
197581
197460
197399
197419
197399
197358
197277
197257
197176
197054
196993
196953
196831
196689
196608
196445
196283
196080
195857
195736
195391
195046
194843
194620
194296
193991
193748
193464
193221
193099
192977
193038
193241
193505
193910
194438
195005
195553
196080
196608
197013
197318
197622
197865
198028
198149
198332
198433
198474
198514
198555
198575
198575
198616
198636
198616
198575
198616
198636
198616
198697
198697
198636
198697
198697
198697
198758
198839
198859
198819
198879
198961
198900
198940
198961
199062
199123
199103
199163
199163
199143
199184
199244
199285
199346
199326
199326
199386
199265
199062
199021
198981
198940
198961
198961
198900
198677
198433
198453
198677
198819
198839
198981
199265
199468
199670
199792
199833
199894
199934
199934
199975
199995
199975
200056
200076
200076
200096
200056
200056
199995
199995
200015
199995
200056
200036
200015
200036
199934
200015
200238
200360
200461
199468
196689
192916
188332
183769
184783
191314
195229
196344
197764
198494
198961
199447
199285
199082
199062
199021
199062
199103
199143
199042
198981
199062
199042
198961
198940
198961
198900
198839
198819
198737
198798
198717
198555
198616
198555
198433
198352
198332
198251
198068
197967
197845
197764
197581
197318
197237
197013
196689
196506
196243
195999
195796
195512
195289
195046
194782
194559
194579
194701
194782
195046
195533
196060
196608
197135
197602
198007
198393
198737
199042
199265
199386
199468
199569
199630
199670
199711
199711
199711
199650
199650
199731
199752
199731
199711
199731
199752
199752
199731
199772
199792
199792
199792
199792
199792
199812
199833
199894
199914
199934
199934
199934
199934
199975
199995
200036
200076
200056
200096
200096
200096
200076
200076
200137
200137
200096
200117
200157
200177
200157
200157
200198
200198
200117
200096
200137
200036
199812
199670
199630
199589
199549
199528
199468
199224
198940
198879
199103
199285
199366
199447
199549
199691
199873
200036
200117
200137
200137
200137
200137
200137
200117
200096
200096
200076
200015
199975
200015
199995
199914
199894
199873
199853
199833
199792
199752
199670
199812
200056
200198
200137
198595
195594
191943
187055
183018
184783
190320
194032
196304
197845
198271
198474
198453
198332
198352
198311
198291
198372
198413
198372
198311
198291
198291
198251
198210
198190
198190
198170
198088
198048
198028
197967
197926
197865
197784
197723
197622
197541
197500
197378
197237
197155
197034
196851
196648
196466
196283
196060
195817
195553
195289
195005
194701
194438
194194
193910
193646
193464
193342
193281
193322
193525
193910
194356
194823
195411
195938
196385
196811
197155
197500
197723
197886
198048
198170
198230
198230
198251
198291
198311
198271
198251
198271
198271
198251
198251
198271
198291
198251
198251
198291
198291
198291
198291
198352
198393
198352
198352
198393
198413
198393
198393
198453
198474
198433
198453
198514
198535
198535
198555
198575
198595
198555
198595
198636
198616
198575
198616
198677
198636
198616
198656
198677
198656
198656
198677
198717
198697
198656
198636
198677
198636
198494
198352
198230
198129
198088
198088
198088
198048
197825
197541
197541
197764
197906
198088
198170
198210
198332
198494
198737
198839
198839
198900
198940
198940
198940
198920
198981
198981
198920
198920
198961
198920
198859
198859
198879
198839
198819
198839
198839
198758
198656
198879
199163
199285
199123
197480
194539
190868
185757
182227
184398
189529
193180
195594
197013
197460
197520
197419
197439
197439
197419
197480
197561
197602
197561
197541
197541
197541
197480
197460
197460
197419
197338
197297
197318
197297
197196
197176
197155
197095
196973
196892
196871
196770
196648
196527
196425
196324
196141
195938
195796
195573
195310
195087
194843
194559
194214
193930
193667
193363
193079
192835
192653
192531
192470
192572
192855
193241
193728
194275
194843
195371
195837
196263
196669
196993
197216
197439
197622
197723
197764
197825
197926
197926
197886
197926
197946
197946
197906
197906
197946
197926
197906
197906
197946
198007
197987
198028
198088
198088
198088
198109
198149
198190
198170
198190
198251
198271
198291
198311
198352
198372
198372
198372
198433
198453
198433
198433
198474
198514
198453
198474
198555
198575
198555
198575
198616
198636
198616
198636
198656
198697
198677
198677
198717
198737
198737
198737
198758
198778
198758
198758
198798
198778
198737
198737
198798
198737
198535
198413
198393
198332
198230
198251
198251
198170
197926
197642
197683
197926
198068
198230
198332
198453
198595
198798
199001
199062
199042
199042
199103
199123
199103
199123
199143
199123
199103
199062
199082
199103
199062
199042
199062
199042
199001
198981
199021
198940
198859
199042
199326
199528
199346
197622
194640
190847
185675
182471
185270
190584
193809
195857
197196
197723
197926
197886
197845
197804
197744
197804
197865
197865
197865
197845
197845
197845
197825
197784
197804
197764
197703
197662
197642
197602
197561
197480
197439
197399
197297
197257
197196
197074
196993
196892
196790
196669
196486
196324
196182
195979
195736
195492
195269
194985
194661
194377
194093
193809
193505
193302
193119
192957
192855
192876
193119
193505
193910
194438
195026
195533
195999
196425
196831
197155
197399
197602
197784
197926
197987
198028
198088
198149
198109
198109
198170
198149
198109
198149
198190
198190
198170
198190
198230
198230
198230
198251
198271
198291
198251
198291
198352
198372
198372
198413
198453
198474
198474
198494
198555
198555
198535
198595
198636
198636
198656
198677
198737
198758
198737
198737
198778
198778
198778
198798
198819
198839
198839
198839
198900
198900
198859
198900
198940
198920
198900
198900
198940
198940
198900
198920
198940
198920
198900
198900
198940
198940
198920
198940
198981
199001
198961
198981
199021
199021
198981
198981
199021
199001
198920
198819
198697
198535
198453
198474
198474
198555
198372
198028
198028
198170
198210
198291
198514
198616
198656
198798
198981
199184
199204
199204
199244
199224
199224
199244
199305
199285
199224
199265
199285
199285
199244
199184
199204
199204
199143
199143
199163
199082
199001
199204
199447
199650
199468
197662
194661
190807
185615
182653
185797
191131
194093
195959
197338
197845
198109
198068
198007
197967
197886
197926
197987
197987
197967
197946
197946
197946
197865
197865
197886
197845
197764
197744
197723
197703
197642
197561
197541
197480
197358
197297
197257
197155
197013
196932
196871
196750
196567
196425
196283
196080
195857
195634
195431
195168
194863
194600
194316
194052
193768
193505
193322
193180
193079
193099
193261
193565
193951
194458
195026
195553
196020
196445
196851
197196
197439
197662
197845
197967
198068
198129
198210
198251
198210
198230
198291
198291
198271
198291
198311
198311
198311
198311
198332
198352
198352
198372
198413
198413
198413
198413
198453
198453
198453
198494
198514
198535
198535
198555
198595
198636
198636
198616
198636
198717
198697
198717
198778
198778
198758
198798
198839
198839
198839
198859
198879
198879
198879
198859
198900
198920
198900
198920
198940
198981
198940
198940
199001
199001
198961
198961
199021
199042
199001
199021
199042
199042
199042
199042
199082
199082
199082
199103
199103
199103
199062
199062
199103
199103
199082
199103
199143
199143
199123
199103
199123
199143
199123
199103
199123
199143
199082
199042
199103
199042
198839
198697
198636
198595
198555
198555
198575
198372
198028
197967
198170
198291
198352
198474
198656
198819
198940
199082
199224
199244
199244
199265
199305
199346
199326
199305
199366
199366
199326
199305
199285
199305
199265
199224
199224
199224
199204
199163
199103
199204
199468
199630
199711
198636
195918
192511
187825
183323
183931
189205
193261
195289
196892
197703
198149
198271
198088
198048
198028
198028
198048
198068
198129
198129
198088
198048
198048
198028
197987
197946
197926
197906
197825
197784
197764
197703
197622
197541
197520
197460
197318
197257
197196
197095
196993
196871
196770
196628
196425
196243
196080
195878
195594
195391
195168
194863
194579
194316
194072
193788
193545
193363
193261
193241
193261
193444
193829
194275
194721
195289
195817
196263
196669
197054
197439
197683
197845
198028
198170
198271
198291
198332
198413
198393
198372
198393
198413
198413
198413
198413
198453
198453
198433
198413
198453
198474
198453
198494
198514
198514
198535
198535
198595
198636
198595
198616
198677
198717
198717
198717
198758
198778
198798
198819
198879
198900
198879
198879
198961
198981
198981
199001
199042
199103
199062
199062
199123
199123
199103
199123
199163
199184
199163
199123
199143
199184
199163
199184
199204
199204
199204
199184
199204
199224
199204
199204
199244
199244
199244
199224
199244
199265
199265
199265
199265
199285
199265
199244
199285
199285
199265
199265
199285
199326
199305
199305
199305
199305
199265
199265
199305
199326
199265
199285
199346
199326
199285
199285
199285
199285
199244
199163
199062
198900
198758
198737
198778
198798
198737
198535
198311
198230
198311
198453
198555
198677
198798
198940
199123
199326
199407
199407
199447
199468
199447
199468
199528
199508
199468
199488
199528
199508
199488
199468
199488
199488
199407
199407
199427
199386
199265
199427
199711
199894
199833
198372
195492
191841
186791
182958
185006
190482
193890
195776
197297
197946
198291
198372
198271
198210
198129
198149
198230
198251
198210
198210
198230
198210
198149
198109
198109
198088
198028
197987
197967
197946
197845
197804
197784
197703
197622
197541
197520
197439
197318
197237
197135
197034
196912
196729
196587
196486
196263
195999
195817
195573
195289
195026
194762
194519
194235
193971
193788
193626
193484
193423
193505
193768
194093
194498
195005
195594
196060
196506
197013
197378
197703
197987
198210
198393
198494
198595
198677
198758
198778
198758
198819
198900
198859
198859
198859
198859
198879
198879
198940
198981
198961
199001
199001
199021
199001
199021
199123
199103
199062
199103
199143
199184
199244
199244
199244
199305
199346
199346
199427
199468
199468
199488
199549
199610
199610
199610
199670
199691
199670
199670
199731
199752
199752
199792
199812
199853
199853
199812
199853
199934
199934
199914
199975
199975
199954
199975
199995
200036
200076
200056
200036
200096
200117
200076
200117
200157
200157
200157
200198
200238
200198
200157
200218
200218
200198
200198
200238
200238
200259
200259
200279
200299
