# aauwss ecg epoch, one sample per line
# source AAUWSS (Aalborg University Wearable Sleep Study) v1.1, Zenodo 10.5281/zenodo.16919071
# licence CC-BY-4.0 - Djanian S, Nielsen T D, Nielsen S H, Bruun A (2025)
# subject 01
# fs_hz 200.0
# samples 6000
# scale 0.1  (value = count * scale, arbitrary published units, NOT mV)
# source_row 422 of 845
# stage_label Wake
# epoch 423.0
29034
29058
28988
28972
29019
29019
28925
28902
28956
28949
28894
28910
28941
28910
28840
28816
28855
28855
28777
28754
28793
28785
28699
28645
28699
28692
28606
28590
28598
28552
28458
28427
28466
28427
28341
28295
28326
28318
28209
28201
28256
28201
28123
28123
28162
28108
28045
28053
28069
28069
27991
27960
27999
27999
27913
27890
27952
27921
27835
27820
27874
27866
27796
27773
27820
27812
27718
27695
27757
27765
27672
27648
27703
27687
27641
27609
27641
27656
27571
27539
27602
27602
27539
27508
27547
27571
27508
27462
27430
27384
27345
27353
27539
27734
27695
27602
27571
27617
27664
27711
27890
27874
27680
27633
27633
27485
27244
27127
27135
27158
27096
27064
27072
27072
27010
26909
26932
26987
26932
26449
25289
24277
24340
26325
30428
34430
38439
43025
45049
45010
43290
36874
30568
28824
28186
27968
28396
28357
28123
27921
27859
27820
27734
27711
27773
27804
27781
27789
27874
27913
27851
27851
27936
27991
27968
27968
28077
28162
28162
28193
28302
28411
28443
28520
28692
28777
28847
28995
29190
29392
29517
29688
29930
30210
30420
30607
30942
31261
31432
31689
32008
32219
32421
32577
32709
32732
32530
32234
31899
31440
30848
30280
29797
29330
28832
28419
28178
27929
27641
27500
27438
27368
27267
27150
27173
27189
27119
27103
27142
27150
27096
27049
27135
27181
27135
27135
27142
27135
27135
27127
27181
27220
27166
27127
27181
27205
27119
27064
27111
27135
27080
27018
27041
27064
26987
26917
26956
26979
26885
26831
26878
26878
26784
26730
26776
26784
26699
26660
26714
26706
26621
26590
26629
26644
26574
26504
26543
26551
26512
26481
26504
26543
26465
26434
26473
26473
26411
26411
26449
26465
26411
26364
26395
26418
26372
26340
26403
26418
26333
26302
26356
26364
26317
26317
26372
26395
26302
26247
26325
26348
26263
26224
26263
26278
26239
26224
26255
26294
26231
26185
26255
26278
26208
26185
26231
26247
26169
26076
26099
26130
26099
26200
26442
26535
26449
26333
26372
26527
26535
26582
26629
26535
26457
26434
26325
26138
25975
25904
25982
26006
25912
25866
25936
25936
25795
25764
25834
25904
25803
24962
23631
22938
23468
26216
30646
34570
39124
43297
44302
44045
40752
33176
28419
27609
26994
27018
27290
27220
27026
26831
26800
26745
26706
26722
26745
26784
26745
26745
26862
26878
26878
26917
26963
27064
27057
27057
27181
27259
27251
27282
27407
27555
27633
27656
27804
27983
28053
28193
28404
28598
28723
28902
29198
29478
29688
29883
30171
30490
30716
30934
31253
31541
31728
31845
31923
31915
31728
31378
30988
30552
30000
29462
29019
28536
28045
27664
27399
27197
26940
26745
26706
26613
26496
26449
26473
26496
26473
26488
26543
26558
26496
26481
26574
26629
26644
26613
26636
26675
26621
26597
26660
26714
26675
26613
26699
26784
26714
26667
26714
26738
26691
26660
26714
26738
26699
26652
26714
26761
26660
26636
26706
26745
26683
26605
26691
26745
26667
26582
26605
26652
26613
26636
26691
26691
26644
26590
26621
26714
26699
26636
26660
26683
26660
26660
26722
26753
26738
26730
26753
26800
26753
26745
26847
26885
26815
26738
26792
26878
26815
26792
26893
26948
26885
26847
26948
27002
26940
26885
26948
27041
27010
26994
27010
27018
27018
26994
27033
27064
27057
27033
26971
27064
27057
26956
27166
27376
27360
27298
27314
27407
27485
27500
27648
27773
27633
27563
27586
27430
27244
27197
27189
27267
27267
27189
27228
27290
27220
27119
27189
27220
27197
27103
26294
24923
24145
24885
27898
32063
35831
40152
43593
44239
43765
40378
33511
29556
28941
28287
28365
28707
28629
28567
28513
28427
28372
28365
28450
28513
28466
28427
28489
28559
28590
28583
28653
28801
28816
28777
28855
28995
29019
29034
29182
29307
29315
29346
29517
29696
29758
29844
30015
30241
30366
30467
30732
31012
31183
31362
31650
31946
32133
32343
32631
32919
33114
33262
33433
33519
33425
33231
32974
32600
32039
31479
31043
30638
30132
29680
29400
29151
28910
28668
28536
28489
28380
28287
28295
28334
28271
28209
28271
28318
28263
28232
28287
28318
28232
28193
28295
28326
28279
28240
28271
28302
28248
28232
28271
28326
28302
28217
28256
28279
28170
28170
28209
28186
28170
28147
28154
28186
28131
28045
28100
28154
28077
27999
27983
28014
27960
27898
27905
27921
27874
27804
27827
27835
27773
27726
27750
27781
27726
27664
27726
27773
27711
27648
27687
27695
27648
27625
27633
27680
27609
27539
27602
27648
27594
27547
27547
27563
27547
27500
27524
27563
27532
27469
27469
27500
27454
27446
27493
27516
27462
27384
27438
27477
27430
27391
27438
27524
27454
27337
27321
27314
27282
27275
27438
27648
27656
27500
27462
27563
27609
27641
27781
27796
27656
27594
27609
27493
27228
27119
27135
27166
27127
27064
27072
27096
27041
26917
26924
26979
26940
26745
25850
24596
24075
25071
28388
32701
36407
40915
44263
44637
44053
39957
32787
29198
28466
27843
28123
28365
28178
27968
27835
27796
27742
27703
27750
27789
27765
27750
27827
27890
27882
27882
27921
28038
28038
27999
28100
28201
28225
28248
28365
28474
28520
28559
28692
28871
28964
29042
29221
29455
29579
29735
30015
30303
30506
30700
31020
31323
31565
31798
32094
32421
32600
32795
32997
33067
32997
32764
32514
32180
31642
31090
30638
30218
29735
29291
29011
28808
28567
28357
28302
28279
28193
28147
28186
28217
28170
28154
28225
28287
28310
28287
28326
28427
28411
28396
28513
28575
28552
28552
28622
28692
28684
28668
28762
28824
28777
28762
28808
28886
28894
28840
28879
28933
28902
28871
28917
28995
28980
28925
28964
29026
28972
28902
28988
29058
29011
28972
29026
29073
29019
29019
29081
29151
29120
29050
29128
29190
29151
29120
29159
29206
29190
29151
29229
29299
29260
29229
29276
29346
29307
29268
29346
29416
29385
29377
29416
29439
29447
29431
29455
29509
29509
29462
29478
29571
29556
29501
29556
29610
29571
29571
29642
29680
29642
29595
29642
29727
29704
29673
29688
29735
29751
29712
29751
29805
29758
29751
29805
29852
29743
29665
29751
29789
29891
30054
30163
30179
30046
30031
30210
30311
30366
30327
30264
30303
30241
30046
29914
29898
29821
29751
29789
29821
29789
29751
29797
29813
29704
29657
29758
29719
28793
27391
26808
27617
30537
34889
38899
43632
47548
48249
47914
44278
36617
32250
31572
31035
31136
31315
31214
31113
30911
30778
30786
30825
30817
30770
30794
30864
30887
30841
30903
30996
30981
30981
31051
31129
31160
31167
31230
31347
31370
31409
31533
31619
31681
31759
31907
32086
32164
32265
32491
32756
32911
33067
33347
33659
33908
34103
34399
34679
34881
35115
35379
35683
35808
35784
35800
35722
35387
34920
34476
33994
33433
32873
32413
32024
31611
31230
30981
30841
30646
30443
30397
30405
30350
30272
30233
30288
30280
30218
30257
30303
30280
30218
30210
30257
30194
30179
30249
30257
30202
30210
30249
30218
30171
30140
30163
30171
30109
30070
30070
30085
30031
29937
29961
30000
29937
29875
29867
29898
29844
29743
29743
29782
29758
29673
29642
29688
29657
29517
29486
29579
29548
29470
29447
29455
29431
29377
29392
29385
29315
29299
29307
29315
29268
29213
29260
29283
29198
29058
29073
29206
29159
29065
29120
29151
29073
29003
29034
29081
29034
28980
28980
28995
28949
28902
28949
28988
28933
28879
28917
28964
28894
28816
28847
28879
28824
28762
28746
28801
28801
28699
28653
28668
28645
28629
28676
28824
28855
28801
28824
28816
28855
28894
28972
29097
29011
28871
28902
28824
28528
28388
28372
28365
28365
28326
28302
28318
28326
28225
28131
28178
28162
28147
27968
26932
25554
25056
26208
29610
33729
37497
41966
44932
45182
44333
39872
33013
29984
29392
28816
29065
29237
29174
29097
28980
28855
28723
28754
28894
28801
28762
28855
28840
28840
28847
28863
29026
29050
28925
29034
29198
29206
29159
29221
29377
29424
29439
29509
29610
29673
29743
29930
30132
30241
30311
30506
30763
30965
31136
31385
31674
31884
32024
32289
32600
32764
32919
33114
33316
33379
33207
33005
32764
32296
31712
31230
30817
30280
29751
29377
29058
28723
28450
28310
28248
28116
27921
27882
27936
27851
27757
27827
27874
27812
27765
27734
27773
27820
27757
27757
27804
27765
27726
27726
27781
27742
27687
27742
27750
27680
27617
27648
27672
27625
27571
27586
27625
27563
27493
27532
27532
27454
27399
27376
27415
27360
27244
27251
27275
27212
27150
27166
27228
27158
27072
27088
27096
27064
27010
27033
27057
26994
26963
26940
26987
26963
26870
26924
26948
26885
26839
26862
26901
26847
26776
26784
26878
26847
26730
26761
26815
26776
26691
26699
26761
26784
26738
26691
26722
26706
26667
26691
26738
26691
26613
26652
26699
26691
26629
26574
26574
26574
26520
26597
26823
26885
26808
26761
26808
26878
26917
27010
27111
27026
26893
26917
26870
26613
26457
26426
26481
26473
26403
26403
26426
26411
26309
26263
26302
26294
26302
25912
24737
23608
23522
25359
29307
33293
37147
41585
43671
43508
42122
36501
30194
28217
27578
27181
27586
27672
27516
27399
27321
27205
27135
27166
27251
27267
27212
27220
27314
27337
27329
27360
27469
27508
27438
27532
27641
27672
27711
27773
27890
27968
27968
28077
28232
28310
28411
28590
28762
28886
29011
29213
29478
29673
29883
30140
30436
30693
30856
31113
31417
31635
31790
31962
32156
32148
31946
31736
31448
31012
30443
29922
29486
28980
28505
28116
27835
27578
27314
27166
27088
26963
26854
26831
26862
26831
26769
26761
26800
26784
26738
26753
26815
26823
26761
26769
26815
26823
26792
26792
26839
26815
26738
26753
26831
26815
26753
26745
26776
26776
26683
26644
26714
26699
26605
26605
26636
26621
26551
26535
26566
26520
26457
26449
26457
26426
26356
26356
26364
26333
26263
26247
26294
26263
26185
26185
26224
26216
26161
26154
26193
26169
26107
26115
26161
26138
26060
26052
26122
26115
26021
25998
26068
26060
25982
26021
26068
26037
25998
25990
26045
26037
25975
25967
26037
26037
25959
25975
26045
26021
25943
25943
25959
25990
25959
25928
25990
25967
25897
25920
25967
25943
25920
25928
25920
25866
25788
25811
25959
26099
26138
26169
26177
26115
26130
26239
26387
26434
26278
26231
26302
26208
25943
25780
25803
25795
25733
25718
25749
25733
25694
25671
25671
25655
25585
25632
25321
24129
22977
22899
24612
28505
32616
36649
41452
43757
43702
42425
36462
29665
27563
27072
26839
27150
27119
27010
26854
26706
26574
26566
26675
26660
26621
26644
26691
26730
26706
26730
26839
26878
26831
26862
26987
27049
27041
27088
27212
27267
27290
27423
27547
27633
27703
27820
28007
28170
28271
28427
28707
28933
29089
29346
29634
29883
30101
30366
30677
30911
31090
31308
31565
31712
31705
31611
31456
31129
30669
30179
29704
29159
28590
28147
27789
27462
27127
26885
26769
26629
26473
26411
26418
26372
26270
26247
26317
26333
26255
26286
26356
26317
26278
26286
26372
26403
26340
26356
26442
26418
26364
26395
26434
26426
26340
26348
26403
26411
26340
26317
26411
26387
26309
26317
26379
26403
26309
26302
26364
26372
26302
26278
26364
26348
26270
26294
26333
26325
26270
26309
26379
26387
26340
26333
26411
26426
26348
26356
26442
26473
26449
26465
26527
26543
26504
26496
26582
26636
26597
26629
26699
26722
26683
26667
26761
26800
26761
26831
26893
26862
26854
26885
26956
27002
26940
26948
27057
27072
27057
27080
27150
27220
27181
27142
27259
27298
27205
27220
27337
27353
27298
27353
27415
27384
27290
27314
27415
27477
27594
27757
27890
27827
27726
27835
27991
28077
28069
28007
28030
28045
27913
27726
27672
27625
27532
27563
27633
27633
27578
27578
27633
27563
27493
27563
27672
27500
26434
25079
24674
25749
29034
33425
37482
42262
45633
46092
45516
40892
33215
29797
29361
28855
29042
29159
29128
29026
28816
28738
28770
28785
28731
28746
28840
28871
28832
28879
28964
28980
28956
29003
29104
29151
29151
29244
29361
29416
29431
29494
29657
29766
29782
29875
30039
30171
30288
30451
30693
30895
31051
31276
31533
31767
32024
32296
32600
32857
33020
33246
33527
33721
33830
33900
33947
33760
33355
32974
32592
32055
31479
30973
30490
30062
29649
29322
29143
28941
28731
28645
28622
28544
28450
28404
28435
28474
28419
28396
28419
28380
28341
28372
28450
28443
28349
28349
28419
28411
28349
28372
28411
28388
28334
28287
28318
28334
28295
28279
28334
28271
28154
28178
28209
28154
28077
28061
28100
28077
28014
27983
27968
27983
27905
27843
27890
27874
27796
27734
27742
27781
27718
27641
27680
27672
27594
27617
27648
27586
27539
27532
27578
27524
27462
27524
27524
27500
27399
27353
27485
27477
27353
27368
27446
27415
27345
27282
27321
27384
27282
27251
27353
27345
27236
27220
27275
27236
27228
27244
27267
27244
27119
27111
27236
27220
27119
27127
27181
27181
27088
26971
26979
26987
26963
27064
27259
27282
27142
27150
27321
27391
27415
27454
27407
27337
27267
27158
26994
26862
26769
26730
26815
26847
26761
26722
26784
26745
26597
26543
26613
26706
26278
25001
23826
23732
25398
29112
33153
37123
41367
43367
43391
41958
36197
30039
28380
27890
27391
27664
27781
27789
27664
27516
27477
27462
27438
27423
27500
27563
27500
27500
27586
27586
27586
27648
27750
27789
27742
27827
27960
28022
28022
28061
28170
28279
28334
28372
28552
28684
28715
28879
29128
29260
29361
29556
29852
30078
30179
30436
30770
31020
31191
31370
31627
31860
31993
32094
32172
32071
31775
31432
31043
30584
30031
29478
29011
28559
28131
27796
27586
27391
27166
27002
26948
26893
26831
26808
26784
26761
26706
26667
26738
26792
26706
26652
26738
26753
26691
26691
26722
26714
26660
26644
26691
26699
26597
26574
26652
26667
26597
26512
26543
26566
26496
26488
26520
26473
26395
26356
26395
26442
26302
26231
26325
26278
26208
26161
26177
26177
26060
26052
26099
26068
25975
25897
25967
25982
25873
25842
25912
25920
25850
25811
25834
25850
25788
25741
25811
25819
25733
25702
25741
25764
25694
25671
25718
25702
25640
25640
25694
25686
25624
25624
25648
25632
25609
25577
25609
25624
25546
25539
25601
25593
25507
25468
25507
25523
25453
25352
25375
25437
25375
25398
25624
25733
25640
25554
25632
25772
25749
25764
25889
25850
25718
25694
25616
25414
25250
25196
25235
25243
25173
25149
25235
25212
25064
25025
25048
25141
24962
23950
22712
22230
23172
26395
30661
34430
38844
42091
42472
41927
37957
30809
27275
26667
25967
26146
26434
26340
26169
26052
26006
25990
25959
25936
26006
26021
25975
25982
26052
26076
26052
26060
26169
26239
26185
26231
26348
26457
26481
26481
26613
26722
26738
26815
26994
27119
27173
27321
27524
27664
27827
28045
28287
28505
28715
28949
29221
29486
29680
29914
30194
30428
30545
30646
30794
30763
30514
30194
29821
29353
28824
28263
27820
27415
26963
26605
26348
26122
25889
25725
25710
25663
25515
25484
25523
25515
25461
25422
25468
25531
25468
25422
25500
25523
25476
25476
25492
25570
25554
25476
25539
25577
25546
25515
25570
25593
25507
25507
25562
25531
25461
25476
25523
25507
25445
25406
25461
25484
25430
25391
25422
25430
25375
25328
25383
25406
25352
25321
25359
25383
25344
25321
25375
25383
25321
25328
25391
25398
25367
25344
25406
25445
25375
25352
25437
25476
25445
25445
25507
25539
25476
25476
25570
25585
25531
25515
25585
25632
25593
25570
25616
25679
25624
25601
25702
25741
25710
25686
25733
25795
25741
25725
25811
25858
25842
25811
25834
25897
25889
25889
25928
25897
25827
25827
25943
26122
26286
26325
26325
26340
26333
26418
26597
26675
26574
26512
26558
26520
26317
26154
26138
26154
26130
26099
26169
26208
26138
26060
26084
26138
26146
25982
25110
23818
23281
24316
27718
32071
35878
40541
43936
44403
43757
39264
31915
28466
27843
27306
27586
27820
27656
27477
27407
27345
27244
27236
27329
27391
27368
27368
27462
27532
27516
27532
27641
27687
27680
27734
27851
27929
27905
27936
28077
28186
28232
28287
28435
28575
28637
28754
28941
29128
29268
29447
29712
29937
30116
30342
30654
30957
31152
31378
31689
31946
32148
32320
32514
32608
32507
32328
32086
31681
31175
30654
30163
29680
29128
28692
28388
28084
27796
27571
27477
27407
27290
27181
27181
27205
27142
27103
27150
27189
27127
27119
27181
27166
27119
27127
27166
27197
27142
27096
27173
27173
27103
27111
27142
27142
27088
27064
27103
27111
27041
26987
27010
27018
26956
26917
26971
26987
26878
26808
26839
26854
26792
26730
26753
26776
26683
26605
26660
26691
26629
26582
26605
26605
26543
26504
26527
26527
26473
26457
26496
26496
26411
26364
26418
26442
26379
26348
26356
26379
26340
26263
26309
26356
26278
26231
26270
26278
26231
26193
26255
26278
26216
26177
26208
26270
26231
26185
26216
26231
26154
26122
26208
26208
26091
26029
26099
26154
26224
26379
26481
26465
26340
26309
26473
26582
26613
26551
26488
26488
26387
26161
26045
25998
25873
25889
25951
25920
25858
25811
25819
25788
25710
25749
25648
24667
23242
22712
23771
27096
31409
35372
40238
43765
44232
43578
39047
31401
27789
27298
26769
26994
27135
26987
26940
26808
26675
26629
26667
26699
26675
26660
26706
26784
26784
26776
26870
26917
26893
26901
26971
27072
27096
27072
27197
27329
27298
27360
27524
27641
27687
27781
27929
28108
28232
28365
28637
28855
29003
29229
29517
29797
29992
30194
30521
30825
30957
31160
31448
31603
31611
31549
31424
31113
30669
30155
29649
29159
28598
28084
27718
27376
27018
26730
26574
26481
26317
26193
26200
26161
26091
26068
26084
26107
26045
26021
26107
26115
26068
26037
26052
26122
26052
25998
26068
26091
26045
26021
26021
26021
25990
25943
25967
25990
25912
25850
25873
25889
25819
25749
25764
25749
25655
25655
25702
25679
25585
25531
25554
25570
25500
25453
25500
25476
25422
25359
25344
25375
25297
25282
25321
25305
25250
25212
25243
25250
25196
25173
25219
25250
25180
25126
25180
25227
25141
25087
25149
25180
25126
25103
25141
25165
25134
25056
25079
25149
25079
25032
25110
25134
25040
25001
25064
25017
24908
24892
24978
25087
25180
25282
25328
25289
25258
25305
25414
25562
25546
25375
25359
25375
25157
24892
24869
24869
24791
24791
24830
24861
24799
24690
24705
24729
24682
24534
23693
22346
21630
22432
25577
29898
33807
38393
41951
42550
41966
37988
30693
26839
26177
25546
25718
25975
25912
25850
25788
25718
25570
25554
25655
25694
25640
25593
25725
25827
25764
25764
25858
25951
25975
25967
26021
26122
26130
26161
26294
26387
26457
26512
26636
26784
26862
26979
27166
27345
27493
27625
27843
28069
28271
28544
28832
29097
29315
29548
29836
30116
30272
30412
30599
30677
30591
30366
30093
29719
29198
28699
28248
27757
27197
26714
26488
26270
25912
25725
25686
25593
25445
25328
25375
25359
25289
25305
25336
25313
25282
25305
25367
25391
25352
25336
25383
25422
25367
25336
25367
25414
25398
25305
25336
25391
25359
25359
25375
25359
25297
25305
25352
25344
25266
25196
25235
25258
25165
25110
25196
25212
25103
25064
25095
25095
25040
25009
25040
25032
24955
24939
24978
24978
24962
24885
24892
24939
24861
24853
24908
24916
24853
24822
24900
24931
24885
24861
24861
24892
24853
24814
24853
24877
24807
24744
24861
24916
24830
24822
24853
24822
24729
24674
24690
24768
24900
24994
25040
25025
24970
25009
25118
25282
25336
25204
25157
25212
25032
24776
24768
24729
24612
24604
24674
24705
24604
24558
24565
24526
24526
24550
24028
22775
21692
21833
24129
28170
32063
36197
40323
41857
41686
39537
33114
27571
26263
25640
25445
25834
25842
25788
25733
25655
25539
25468
25562
25655
25632
25609
25671
25733
25749
25741
25803
25904
25850
25858
26029
26084
26091
26122
26208
26348
26403
26473
26613
26761
26870
26932
27096
27267
27376
27539
27789
28022
28193
28411
28684
28941
29151
29369
29665
29969
30116
30280
30506
30584
30506
30366
30148
29758
29229
28723
28271
27796
27306
26885
26535
26255
26006
25811
25741
25640
25484
25414
25422
25445
25414
25336
25383
25453
25383
25336
25398
25430
25375
25367
25453
25468
25406
25406
25445
25492
25445
25398
25468
25484
25422
25406
25445
25461
25383
25391
25453
25398
25297
25297
25383
25391
25305
25250
25289
25274
25204
25196
25235
25219
25134
25087
25110
25149
25087
24962
25040
25118
25017
24916
24908
24994
25032
24986
25009
25056
24978
24908
24978
25048
24962
24916
24970
24978
24931
24892
24939
24978
24931
24885
24931
24931
24916
24962
24970
24923
24830
24768
24838
24947
25095
25227
25258
25219
25134
25196
25336
25445
25500
25406
25344
25383
25250
24970
24885
24885
24807
24791
24814
24869
24807
24729
24744
24729
24791
24667
23748
22494
21872
22705
25858
30155
33947
38431
42028
42643
42091
38190
30918
27033
26333
25718
25951
26255
26146
25982
25873
25827
25749
25725
25788
25842
25827
25811
25873
25959
25943
25928
26037
26122
26122
26138
26247
26309
26294
26379
26527
26629
26644
26691
26847
26994
27064
27173
27376
27555
27711
27874
28131
28427
28598
28770
29097
29400
29587
29813
30132
30397
30576
30755
30926
31043
30950
30700
30451
30070
29548
28995
28528
28077
27578
27135
26839
26621
26333
26154
26084
26013
25928
25819
25842
25889
25811
25788
25858
25904
25866
25827
25881
25959
25912
25850
25920
25982
25928
25897
25936
25975
25928
25897
25936
25951
25928
25897
25889
25897
25889
25842
25881
25936
25827
25749
25780
25780
25741
25702
25725
25749
25702
25616
25679
25702
25585
25577
25609
25601
25562
25515
25554
25601
25554
25484
25515
25554
25500
25468
25531
25562
25484
25461
25492
25531
25500
25430
25453
25515
25500
25445
25461
25507
25468
25414
25437
25515
25492
25430
25507
25484
25359
25328
25422
25609
25780
25811
25803
25858
25873
25873
26006
26130
26068
25959
25928
25951
25702
25437
25453
25422
25383
25383
25422
25422
25344
25282
25266
25289
25313
25212
24511
23187
22308
22884
25710
30078
34033
38556
42737
43780
43406
40059
32546
27804
26979
26379
26481
26823
26691
26512
26426
26372
26263
26239
26302
26364
26387
26364
26395
26457
26465
26473
26543
26644
26636
26652
26753
26839
26862
26870
27010
27166
27166
27197
27353
27446
27524
27672
27851
28053
28201
28310
28559
28832
29034
29260
29509
29766
30015
30272
30576
30864
31051
31175
31362
31518
31432
31160
30903
30560
30031
29447
28980
28559
28045
27578
27259
27018
26745
26512
26426
26387
26247
26146
26177
26208
26177
26146
26185
26208
26161
26169
26185
26208
26185
26154
26224
26263
26239
26185
26208
26270
26193
26138
26224
26278
26200
26161
26193
26177
26138
26091
26122
26122
26052
26052
26052
26045
25982
25904
25975
26029
25912
25873
25943
25959
25897
25834
25842
25873
25834
25749
25803
25858
25772
25718
25757
25788
25764
25733
25780
25803
25757
25702
25725
25795
25772
25710
25757
25795
25741
25648
25655
25718
25710
25679
25710
25702
25671
25686
25694
25702
25679
25593
25632
25679
25694
25889
26052
26216
26364
26224
26270
26434
26216
26185
26317
26247
25943
25632
25616
25663
25640
25562
25531
25616
25546
25476
25507
25484
25422
25391
25414
24705
23281
22409
22977
25702
29727
33503
37863
41585
42425
42044
39171
32398
27796
26963
26403
26411
26636
26605
26636
26574
26457
26364
26411
26496
26473
26434
26512
26590
26597
26605
26691
26730
26714
26745
26839
26963
26979
26963
27057
27173
27220
27275
27415
27586
27641
27641
27820
28077
28178
28263
28497
28738
28925
29128
29385
29634
29828
30039
30296
30599
30817
30950
31183
31385
31393
31300
31167
30950
30529
29992
29548
29089
28559
28123
27781
27477
27189
26909
26769
26722
26566
26488
26504
26512
26434
26348
26395
26465
26449
26418
26473
26488
26442
26395
26465
26551
26504
26449
26457
26504
26496
26457
26488
26520
26434
26387
26465
26504
26449
26418
26473
26496
26418
26356
26395
26403
26333
26270
26325
26340
26239
26169
26224
26247
26161
26099
26146
26200
26154
26099
26107
26130
26084
26045
26091
26146
26107
26013
26045
26122
26084
26013
26052
26099
26052
26021
26052
26091
26052
26013
26084
26138
26068
26021
26060
26076
26045
25998
26068
26122
26060
26037
26045
26076
26060
25982
25998
26045
26045
26177
26411
26535
26629
26566
26527
26776
26691
26520
26660
26660
26473
26169
26013
26021
25990
25975
25998
26006
25936
25873
25897
25889
25827
25819
25866
25461
24215
23070
23172
25157
29034
32958
36983
41499
43344
43181
41779
35847
29548
27734
27181
26901
27244
27251
27173
27080
26948
26878
26893
26932
26932
26901
26956
27057
27041
27010
27096
27173
27166
27173
27282
27368
27360
27391
27516
27602
27633
27672
27804
27960
28022
28092
28248
28443
28528
28661
28917
29128
29291
29486
29758
30046
30280
30490
30770
31051
31253
31432
31650
31899
31946
31884
31814
31596
31206
30732
30257
29805
29276
28770
28396
28092
27750
27454
27337
27236
27072
26948
26917
26940
26870
26815
26878
26917
26862
26831
26885
26948
26893
26854
26909
26963
26932
26878
26932
26979
26932
26901
26924
26956
26909
26839
26878
26924
26862
26815
26839
26862
26839
26753
26753
26823
26769
26691
26730
26730
26675
26636
26660
26683
26597
26543
26590
26621
26558
26512
26543
26566
26520
26449
26481
26535
26496
26442
26465
26512
26481
26434
26481
26504
26481
26449
26403
26481
26473
26395
26449
26520
26449
26379
26457
26488
26442
26418
26442
26488
26457
26395
26426
26481
26434
26379
26442
26496
26457
26403
26457
26504
26442
26395
26411
26465
26488
26411
26387
26426
26395
26411
26597
26808
26823
26699
26683
26800
26854
26901
26994
26948
26839
26792
26761
26621
26449
26372
26356
26403
26379
26309
26325
26372
26302
26200
26239
26294
26286
25803
24550
23545
23639
25546
29618
33776
37871
42457
44450
44465
42706
36026
29712
28170
27617
27391
27781
27789
27656
27438
27337
27353
27267
27244
27337
27376
27360
27360
27446
27516
27469
27446
27555
27648
27641
27641
27742
27843
27859
27898
28022
28123
28154
28232
28388
28536
28614
28723
28925
29135
29260
29439
29719
29961
30163
30366
30669
31027
31245
31440
31744
32001
32195
32343
32499
32577
32398
32141
31853
31440
30918
30366
29883
29431
28956
28520
28225
27999
27765
27578
27477
27423
27337
27251
27259
27306
27251
27205
27259
27306
27282
27251
27306
27376
27353
27298
27329
27376
27337
27290
27314
27384
27345
27244
27290
27353
27282
27212
27244
27267
27220
27181
27181
27220
27189
27119
27142
27189
27135
27064
27088
27135
27049
26994
27026
27049
26994
26948
27002
27026
26971
26924
26979
26994
26932
26878
26909
26940
26909
26870
26917
26963
26885
26839
26870
26901
26878
26839
26878
26924
26847
26792
26823
26870
26870
26823
26847
26893
26862
26808
26839
26878
26839
26823
26839
26893
26885
26831
26885
26917
26862
26862
26893
26932
26909
26878
26948
26948
26854
26808
26839
26940
27072
27197
27267
27220
27181
27220
27314
27446
27438
27314
27290
27345
27236
26994
26909
26917
26839
26792
26815
26878
26815
26769
26823
26769
26699
26691
26730
26652
25694
24254
23748
24729
27898
32242
36290
41172
44823
45384
44886
40549
32779
28933
28396
27929
28116
28248
28178
28092
27898
27773
27765
27820
27789
27742
27804
27890
27882
27859
27952
28022
27991
27999
28100
28193
28217
28217
28326
28458
28474
28505
28653
28816
28879
28956
29143
29299
29369
29478
29696
29961
30140
30288
30560
30879
31136
31362
31650
31954
32172
32382
32655
32896
33005
33036
33036
32896
32561
32117
31674
31183
30607
30062
29626
29268
28917
28552
28310
28162
28022
27866
27804
27827
27734
27625
27648
27711
27726
27680
27680
27734
27718
27687
27734
27781
27711
27664
27718
27765
27726
27680
27718
27789
27804
27703
27687
27718
27633
27609
27648
27656
27617
27539
27571
27602
27508
27446
27469
27524
27485
27399
27423
27462
27415
27337
27345
27384
27321
27267
27275
27275
27228
27189
27259
27314
27220
27150
27228
27267
27212
27158
27181
27212
27189
27166
27135
27197
27205
27166
27189
27220
27166
27088
27127
27197
27150
27111
27142
27150
27142
27142
27142
27205
27181
27088
27142
27205
27158
27103
27103
27142
27142
27103
27158
27205
27158
27080
27033
27049
27033
27002
27142
27337
27384
27337
27290
27360
27446
27477
27586
27664
27539
27423
27516
27430
27096
26971
26994
27064
27096
27033
27018
27026
27002
26885
26893
26971
26932
26917
26488
25219
24020
23981
26029
30070
34056
38136
42410
44138
44060
42254
36026
30140
28699
28147
27843
28209
28240
28162
28092
28045
27991
27913
27952
28038
27991
27952
28030
28092
28116
28108
28147
28271
28318
28318
28372
28458
28458
28458
28598
28762
28832
28832
28941
29135
29206
29276
29447
29649
29797
29937
30140
30358
30591
30794
30965
31269
31487
31689
32063
32320
32413
32546
32756
32950
32966
32740
32538
32289
31790
31269
30825
30373
29867
29400
29042
28801
28559
28318
28225
28178
28022
27898
27936
27952
27890
27851
27882
27929
27898
27882
27929
27983
27944
27874
27960
28014
27944
27905
27921
27999
27983
27882
27913
27960
27913
27890
27944
28007
27960
27905
27929
27968
27898
27781
27812
27898
27835
27765
27773
27781
27773
27711
27703
27757
27703
27586
27633
27672
27617
27563
27563
27625
27586
27516
27555
27563
27532
27493
27516
27563
27524
27493
27547
27555
27508
27469
27485
27547
27532
27454
27500
27555
27500
27462
27485
27532
27500
27438
27477
27516
27477
27430
27454
27532
27516
27454
27500
27547
27532
27477
27508
27602
27532
27415
27477
27539
27524
27656
27820
27874
27827
27718
27851
28045
28061
28053
28022
27991
27952
27820
27633
27578
27516
27415
27469
27539
27516
27438
27446
27454
27360
27282
27314
27430
26870
25492
24558
24853
27057
31082
35021
39233
43515
44932
44738
42815
36244
30498
29244
28653
28450
28808
28832
28777
28575
28427
28427
28458
28450
28411
28481
28575
28575
28552
28622
28699
28684
28645
28692
28801
28847
28847
28933
29042
29089
29135
29244
29392
29455
29501
29665
29852
29937
30015
30225
30482
30654
30809
31082
31370
31580
31744
32024
32351
32538
32725
32997
33246
33394
33449
33472
33394
33114
32709
32265
31829
31331
30794
30319
29937
29548
29174
28956
28816
28637
28481
28450
28443
28341
28263
28302
28349
28341
28271
28287
28365
28310
28287
28349
28380
28349
28310
28334
28411
28380
28287
28334
28372
28365
28349
28341
28380
28334
28225
28271
28365
28279
28186
28232
28263
28201
28131
28154
28209
28147
28053
28061
28100
28077
27991
28014
28045
27999
27921
27905
27936
27929
27898
27898
27929
27890
27827
27859
27913
27898
27827
27843
27890
27835
27773
27804
27843
27812
27773
27804
27866
27820
27750
27773
27820
27820
27781
27796
27859
27851
27773
27820
27890
27843
27796
27820
27866
27827
27765
27812
27874
27874
27804
27820
27898
27851
27789
27804
27835
27827
27789
27843
27929
27890
27773
27726
27804
27796
27781
27991
28170
28186
28100
28084
28186
28186
28217
28372
28357
28209
28186
28154
28007
27843
27718
27734
27796
27781
27726
27726
27789
27687
27571
27609
27680
27672
27080
25850
24908
25025
27096
31284
35426
39677
44216
45945
45890
43811
36843
30864
29579
29034
28847
29244
29276
29089
28863
28793
28816
28793
28754
28793
28863
28855
28824
28879
29011
29034
28980
29042
29143
29159
29198
29291
29369
29400
29424
29556
29688
29719
29789
29930
30101
30202
30288
30475
30708
30887
31035
31269
31588
31821
32024
32296
32600
32857
33059
33340
33651
33861
34009
34173
34274
34142
33838
33534
33168
32655
32078
31588
31136
30661
30225
29937
29735
29517
29299
29206
29167
29097
29003
28988
29073
29050
29011
29058
29097
29104
29026
29058
29159
29143
29120
29167
29221
29190
29167
29237
29268
29229
29190
29221
29330
29291
29167
29182
29237
29182
29143
29198
29268
29229
29159
29167
29206
29198
29128
29143
29206
29120
29073
29081
29097
29128
29050
29065
29151
29065
28972
29011
29026
28988
28964
28980
29026
29011
29011
29065
29058
29003
28925
28964
29073
29042
28988
29026
29065
29050
29019
29042
29104
29097
29026
29058
29128
29120
29058
29073
29128
29089
29050
29104
29198
29159
29089
29135
29190
29167
29112
29120
29206
29174
29104
29135
29206
29206
29159
29198
29260
29221
29174
29221
29283
29252
29159
29143
29206
29213
29237
29478
29665
29579
29455
29494
29642
29696
29735
29766
29712
29665
29603
29439
29330
29268
29151
29167
29237
29206
29159
29167
29213
29151
29058
29065
29151
28988
27968
26644
26177
27127
30311
34694
38751
43531
47035
47611
47042
42558
34866
31261
30802
30233
30397
30623
30584
30436
30218
30148
30187
30155
30078
30132
30194
30179
30171
30233
30327
30366
30358
30428
30482
30490
30506
30599
30716
30747
30763
30887
31012
31051
31121
31269
31456
31557
31627
31790
32016
32195
32366
32623
32919
33129
33309
33620
33947
34157
34352
34624
34905
35076
35193
35317
35309
35107
34780
34391
33970
33464
32896
32328
31860
31487
31082
30802
30623
30373
30155
30023
30000
29937
29836
29867
29914
29844
29797
29828
29860
29883
29860
29836
29914
29906
29828
29875
29930
29875
29828
29821
29860
29836
29766
29813
29883
29828
29743
29751
29789
29751
29696
29712
29774
29696
29595
29642
29673
29603
29571
29603
29587
29571
29494
29478
29509
29486
29431
29416
29400
29330
29315
29346
29392
29400
29330
29299
29338
29283
29213
29244
29299
29276
29120
29128
29268
29237
29159
29151
29213
29198
29128
29159
29182
29151
29112
29143
29198
29120
29058
29104
29159
29167
29112
29112
29182
29159
29081
29065
29112
29104
29050
29089
29135
29081
29058
29104
29128
29097
29019
29026
29104
29104
29011
28917
28933
28941
28871
28988
29229
29299
29252
29198
29244
29338
29377
29494
29540
29408
29307
29338
29237
28980
28855
28847
28910
28941
28879
28886
28910
28855
28723
28707
28770
28808
28622
27625
26317
25679
26597
29875
34040
37824
42215
45298
45781
45189
40970
34017
30802
30249
29610
29828
30078
30023
29898
29805
29852
29774
29657
29743
29844
29813
29789
29860
29961
29945
29898
29976
30085
30148
30132
30194
30288
30296
30334
30428
30576
30630
30646
30770
30911
31004
31090
31261
31463
31635
31767
31930
32203
32429
32600
32841
33129
33379
33565
33830
34149
34328
34430
34609
34757
34655
34414
34165
33830
33347
32748
32265
31853
31354
30911
30607
30358
30109
29891
29758
29712
29603
29509
29540
29525
29470
29424
29455
29556
29525
29470
29486
29533
29517
29439
29501
29571
29486
29447
29509
29587
29548
29455
29486
29548
29548
29431
29416
29501
29462
29400
29431
29462
29416
29315
29361
29400
29353
29315
29268
29299
29283
29182
29174
29213
29151
29073
29112
29167
29143
29081
29073
29128
29104
29011
29011
29065
29026
29011
29034
29065
29065
28988
29019
29065
29011
28956
28995
29089
29034
28956
28972
28995
29003
28980
28980
29019
28972
28941
28956
29003
29003
28941
28972
29042
29026
28956
28980
29034
28988
28941
28964
29026
29011
28941
28972
29011
28917
28824
28871
28980
29089
29213
29252
29252
29206
29190
29283
29424
29509
29439
29361
29392
29338
29097
28949
28988
28902
28855
28902
28894
28886
28832
28785
28824
28816
28731
28793
28513
27306
26115
26037
27750
31557
35605
39521
44123
46396
46310
45143
39630
32966
30700
30140
29836
30225
30233
30148
30046
29883
29789
29805
29867
29867
29828
29875
29945
29984
29961
30007
30124
30132
30116
30187
30280
30327
30327
30420
30560
30599
30607
30708
30848
30965
31035
31160
31347
31471
31572
31790
32055
32234
32405
32670
32974
33192
33394
33667
33986
34227
34391
34632
34866
34975
34967
34858
34687
34344
33830
33355
32911
32390
31829
31385
31051
30693
30366
30140
30046
29945
29789
29743
29727
29704
29642
29610
29688
29665
29618
29649
29704
29712
29680
29696
29751
29758
29696
29719
29813
29782
29719
29719
29766
29743
29665
29696
29782
29751
29657
29657
29727
29696
29626
29626
29649
29634
29571
29556
29587
29571
29494
29447
29501
29501
29392
29400
29470
29447
29377
29361
29408
29369
29283
29291
29353
29330
29252
29276
29377
29338
29252
29268
29322
29322
29237
29244
29307
29307
29244
29244
29307
29276
29213
29206
29252
29252
29206
29213
29268
29221
29167
29198
29252
29268
29190
29190
29276
29237
29159
29174
29229
29237
29182
29167
29221
29221
29159
29167
29229
29229
29151
29151
29237
29221
29167
29198
29174
29112
29104
29112
29268
29478
29501
29478
29470
29478
29509
29595
29758
29751
29595
29533
29587
29447
29190
29151
29151
29135
29097
29073
29112
29112
29058
29011
29050
29050
29026
28964
28256
26893
26084
26675
29470
33807
37707
42215
46373
47346
47003
43803
36423
31658
30786
30225
30373
30646
30475
30373
30280
30155
30062
30070
30155
30210
30140
30163
30272
30264
30249
30296
30381
30405
30405
30490
30576
30646
30661
30716
30856
30934
30934
31043
31214
31339
31401
31518
31736
31915
32039
32234
32499
32717
32911
33192
33488
33737
33963
34235
34562
34796
34951
35185
35434
35504
35434
35286
35084
34710
34173
33659
33168
32678
32133
31658
31347
31004
30708
30521
30420
30288
30140
30093
30116
30085
29969
29984
30062
30062
30039
30039
30093
30093
30054
30070
30124
30140
30085
30085
30163
30155
30078
30093
30163
30148
30078
30085
30124
30124
30062
30031
30109
30116
30031
29992
30023
30023
29937
29922
29953
29961
29875
29875
29930
29875
29805
29797
29821
29821
29751
29735
29774
29758
29673
29657
29743
29743
29649
29649
29696
29673
29634
29626
29657
29673
29587
29587
29673
29688
29634
29626
29626
29626
29618
29603
29665
29657
29564
29587
29649
29634
29618
29610
29657
29649
29579
29587
29634
29642
29610
29579
29626
29657
29564
29556
29626
29626
29595
29618
29688
29673
29595
29610
29680
29688
29642
29595
29579
29579
29548
29634
29906
30015
29922
29844
29906
30015
30015
30132
30202
30093
30015
29992
29945
29758
29610
29564
29610
29634
29540
29525
29595
29595
29470
29431
29478
29494
29447
28793
27485
26582
26901
29361
33674
37754
42207
46606
48062
47883
45111
37777
32359
31370
