# aauwss ecg epoch, one sample per line
# source AAUWSS (Aalborg University Wearable Sleep Study) v1.1, Zenodo 10.5281/zenodo.16919071
# licence CC-BY-4.0 - Djanian S, Nielsen T D, Nielsen S H, Bruun A (2025)
# subject 02
# fs_hz 200.0
# samples 6000
# scale 0.1  (value = count * scale, arbitrary published units, NOT mV)
# source_row 375 of 751
# stage_label N2
# epoch 376.0
-15340
-15217
-15327
-15438
-15340
-15241
-15352
-15450
-15364
-15254
-15327
-15426
-15340
-15241
-15315
-15413
-15340
-15241
-15364
-15463
-15352
-15229
-15327
-15475
-15364
-15229
-15340
-15438
-15352
-15254
-15315
-15426
-15327
-15143
-15205
-15340
-15254
-15008
-14898
-14848
-14529
-14148
-14161
-14271
-14124
-14198
-14677
-15045
-15131
-15020
-14959
-14996
-15020
-15180
-15389
-15438
-15327
-15340
-15524
-15647
-15598
-15499
-15524
-15634
-15561
-15413
-15512
-15647
-15536
-15389
-15450
-15561
-15475
-15327
-15327
-15389
-15241
-14996
-14971
-14873
-14259
-13448
-12527
-10722
-7197
-3905
-3954
-7467
-12159
-14775
-17010
-19516
-19430
-18951
-18938
-18140
-16998
-15806
-15143
-14873
-14578
-14382
-14369
-14406
-14222
-14013
-14062
-14112
-13964
-13829
-13841
-13940
-13829
-13645
-13694
-13780
-13645
-13461
-13497
-13583
-13448
-13252
-13264
-13325
-13190
-12957
-12932
-12945
-12761
-12527
-12466
-12453
-12208
-11888
-11766
-11704
-11397
-11004
-10820
-10709
-10341
-9887
-9665
-9493
-9113
-8695
-8511
-8388
-8106
-7774
-7651
-7676
-7565
-7504
-7688
-8044
-8339
-8634
-9236
-9972
-10513
-11016
-11631
-12257
-12650
-12883
-13240
-13657
-13817
-13841
-14075
-14345
-14357
-14271
-14394
-14529
-14455
-14308
-14357
-14517
-14443
-14283
-14333
-14480
-14431
-14296
-14345
-14480
-14394
-14234
-14369
-14566
-14455
-14308
-14406
-14591
-14529
-14455
-14554
-14664
-14664
-14529
-14664
-14898
-14836
-14677
-14726
-14910
-14959
-14910
-14947
-15057
-14984
-14885
-15082
-15217
-15070
-14922
-15008
-15192
-15192
-15057
-15094
-15278
-15291
-15155
-15192
-15303
-15205
-15057
-15155
-15352
-15315
-15229
-15315
-15377
-15254
-15119
-15229
-15450
-15389
-15229
-15241
-15377
-15352
-15192
-15291
-15487
-15438
-15266
-15291
-15438
-15401
-15192
-15229
-15463
-15413
-15254
-15303
-15450
-15377
-15241
-15315
-15413
-15389
-15254
-15266
-15413
-15377
-15266
-15291
-15291
-15254
-15180
-15119
-15082
-14812
-14468
-14369
-14455
-14382
-14198
-14394
-14910
-15131
-15070
-15082
-15119
-15020
-15082
-15413
-15536
-15377
-15327
-15524
-15745
-15684
-15512
-15524
-15622
-15573
-15536
-15598
-15684
-15598
-15389
-15499
-15720
-15585
-15364
-15426
-15549
-15438
-15217
-15082
-15168
-14922
-14124
-13436
-12490
-10255
-6497
-3549
-3905
-7307
-11422
-13571
-15745
-18361
-18619
-18594
-18889
-17980
-16789
-15856
-15315
-14922
-14541
-14431
-14431
-14308
-14112
-14099
-14259
-14136
-13854
-13940
-14075
-13854
-13596
-13547
-13719
-13719
-13473
-13436
-13620
-13522
-13289
-13276
-13276
-13190
-12982
-12883
-12883
-12761
-12552
-12453
-12478
-12343
-12024
-11815
-11753
-11569
-11213
-10930
-10722
-10366
-9899
-9616
-9481
-9162
-8646
-8314
-8179
-7872
-7516
-7393
-7381
-7209
-7013
-7172
-7553
-7835
-8093
-8572
-9322
-9972
-10464
-11090
-11692
-12085
-12380
-12822
-13362
-13608
-13645
-13866
-14099
-14075
-14013
-14136
-14357
-14369
-14222
-14198
-14333
-14333
-14173
-14173
-14283
-14234
-14112
-14075
-14173
-14185
-14026
-14062
-14185
-14210
-14148
-14136
-14247
-14247
-14136
-14222
-14394
-14394
-14271
-14283
-14505
-14541
-14406
-14455
-14652
-14640
-14505
-14591
-14750
-14787
-14640
-14652
-14922
-14885
-14701
-14664
-14787
-14873
-14762
-14775
-14959
-14934
-14750
-14787
-14971
-14959
-14836
-14824
-14959
-14984
-14873
-14934
-15070
-15020
-14873
-14848
-14971
-15057
-14947
-14947
-15106
-15057
-14873
-14898
-15082
-15094
-14959
-14959
-15119
-15119
-14947
-14996
-15168
-15180
-15020
-14984
-15119
-15070
-14934
-14971
-15131
-15143
-14984
-15008
-15192
-15180
-15033
-14947
-14971
-15070
-14971
-14836
-14861
-14652
-14234
-14087
-14198
-14161
-14001
-14222
-14640
-14787
-14775
-14824
-14824
-14775
-14824
-15057
-15254
-15192
-15082
-15217
-15426
-15401
-15327
-15327
-15413
-15438
-15291
-15303
-15463
-15463
-15254
-15205
-15352
-15352
-15205
-15168
-15278
-15192
-14934
-14799
-14799
-14529
-13817
-13117
-12146
-9862
-5907
-2677
-2910
-6509
-10660
-13375
-16322
-18607
-18619
-18594
-18693
-17931
-16814
-15745
-15094
-14615
-14259
-14198
-14259
-14148
-13927
-13890
-13964
-13915
-13743
-13706
-13780
-13731
-13510
-13485
-13583
-13411
-13203
-13215
-13313
-13301
-13080
-12969
-13092
-13055
-12822
-12589
-12564
-12490
-12220
-12171
-12220
-12036
-11717
-11471
-11348
-11152
-10783
-10476
-10316
-9936
-9420
-9100
-8953
-8597
-8032
-7713
-7627
-7393
-6988
-6730
-6681
-6632
-6521
-6558
-6988
-7467
-7737
-8192
-8953
-9579
-10058
-10697
-11471
-12011
-12220
-12527
-13055
-13436
-13559
-13706
-13964
-14013
-13915
-13976
-14161
-14185
-14062
-14075
-14259
-14234
-14013
-13976
-14112
-14112
-13976
-13976
-14124
-14136
-13989
-13952
-14112
-14198
-14038
-14050
-14247
-14198
-14062
-14099
-14247
-14345
-14173
-14198
-14443
-14406
-14345
-14369
-14529
-14726
-14566
-14517
-14750
-14762
-14627
-14652
-14824
-14898
-14775
-14787
-14971
-14947
-14812
-14861
-14971
-14984
-14836
-14750
-15045
-15119
-14873
-14861
-15033
-15082
-14996
-14934
-15057
-15106
-14934
-14922
-15131
-15192
-15033
-14959
-15119
-15168
-14996
-15020
-15192
-15168
-14959
-14947
-15192
-15180
-15033
-15057
-15192
-15217
-15070
-15033
-15205
-15180
-14996
-15070
-15168
-15180
-15057
-14947
-15057
-15094
-14910
-14885
-14959
-14812
-14468
-14234
-14222
-14271
-14075
-13952
-14320
-14615
-14775
-14996
-15008
-14898
-14750
-14873
-15291
-15315
-15094
-15143
-15426
-15475
-15315
-15389
-15561
-15598
-15487
-15377
-15536
-15585
-15438
-15364
-15487
-15549
-15413
-15352
-15487
-15463
-15217
-15143
-15180
-15082
-14726
-14161
-13608
-12539
-10206
-6423
-3119
-3045
-6619
-11360
-14517
-17329
-19417
-19331
-19356
-19159
-18042
-16949
-15966
-15340
-14824
-14554
-14603
-14517
-14271
-14148
-14247
-14234
-14038
-13927
-14026
-14050
-13854
-13743
-13854
-13854
-13694
-13583
-13620
-13645
-13448
-13338
-13411
-13387
-13154
-12982
-13031
-12994
-12711
-12589
-12601
-12453
-12159
-11925
-11852
-11729
-11385
-11078
-10967
-10746
-10341
-9997
-9813
-9530
-9051
-8671
-8499
-8290
-7885
-7577
-7528
-7455
-7221
-7172
-7430
-7663
-7823
-8167
-8830
-9481
-9960
-10550
-11287
-11888
-12294
-12687
-13215
-13633
-13768
-13903
-14271
-14492
-14419
-14419
-14603
-14677
-14578
-14554
-14701
-14750
-14566
-14517
-14640
-14677
-14554
-14455
-14554
-14627
-14480
-14394
-14529
-14615
-14455
-14419
-14578
-14640
-14529
-14505
-14689
-14762
-14664
-14652
-14848
-14934
-14812
-14824
-14996
-15070
-14984
-14947
-15119
-15229
-15119
-15057
-15217
-15327
-15205
-15143
-15315
-15389
-15254
-15229
-15377
-15438
-15327
-15266
-15401
-15487
-15364
-15278
-15426
-15536
-15364
-15266
-15463
-15549
-15413
-15340
-15475
-15573
-15426
-15364
-15524
-15561
-15450
-15401
-15524
-15598
-15487
-15413
-15536
-15634
-15524
-15463
-15598
-15659
-15512
-15426
-15573
-15671
-15536
-15438
-15598
-15696
-15561
-15487
-15610
-15720
-15585
-15499
-15647
-15720
-15585
-15512
-15634
-15733
-15598
-15512
-15671
-15745
-15610
-15536
-15634
-15684
-15499
-15377
-15573
-15622
-15291
-15033
-14984
-14812
-14517
-14431
-14468
-14554
-14775
-15020
-15364
-15536
-15303
-15106
-15266
-15561
-15622
-15512
-15573
-15757
-15782
-15720
-15880
-16003
-15856
-15745
-15868
-15942
-15819
-15720
-15843
-15942
-15831
-15720
-15806
-15856
-15720
-15585
-15647
-15634
-15364
-15180
-15020
-14541
-13657
-12282
-10022
-6312
-3524
-4544
-8990
-13620
-16064
-18508
-20191
-19810
-19516
-18975
-18066
-17047
-15892
-15254
-15020
-14971
-14787
-14591
-14652
-14627
-14443
-14320
-14382
-14431
-14271
-14136
-14234
-14247
-14062
-13940
-14001
-14013
-13890
-13743
-13817
-13878
-13645
-13497
-13547
-13571
-13375
-13129
-13154
-13104
-12859
-12601
-12515
-12564
-12245
-11913
-11803
-11643
-11336
-10955
-10771
-10574
-10144
-9751
-9579
-9309
-8879
-8585
-8486
-8351
-8044
-7799
-7811
-7885
-7848
-7934
-8339
-8830
-9186
-9629
-10378
-11078
-11459
-12011
-12675
-13154
-13436
-13633
-13989
-14333
-14419
-14443
-14640
-14836
-14787
-14713
-14861
-14959
-14848
-14762
-14848
-14922
-14799
-14701
-14848
-14873
-14701
-14689
-14775
-14836
-14750
-14640
-14762
-14885
-14799
-14726
-14873
-14996
-14910
-14836
-14984
-15106
-15020
-14959
-15119
-15278
-15205
-15119
-15278
-15413
-15315
-15241
-15389
-15524
-15426
-15352
-15463
-15549
-15463
-15389
-15536
-15634
-15536
-15475
-15585
-15671
-15598
-15499
-15610
-15745
-15647
-15536
-15659
-15770
-15671
-15610
-15720
-15819
-15745
-15634
-15708
-15831
-15745
-15622
-15757
-15868
-15745
-15622
-15733
-15868
-15745
-15634
-15782
-15880
-15733
-15647
-15745
-15831
-15757
-15634
-15757
-15880
-15757
-15684
-15782
-15880
-15794
-15684
-15782
-15868
-15757
-15708
-15806
-15892
-15819
-15720
-15806
-15905
-15806
-15708
-15819
-15942
-15831
-15720
-15794
-15868
-15733
-15549
-15696
-15856
-15610
-15291
-15180
-15045
-14738
-14603
-14689
-14738
-14873
-15143
-15524
-15819
-15671
-15401
-15475
-15720
-15856
-15794
-15819
-15991
-16052
-15991
-16077
-16249
-16150
-16028
-16150
-16224
-16113
-15991
-16077
-16212
-16077
-15929
-16052
-16138
-16015
-15868
-15880
-15929
-15696
-15450
-15377
-15008
-14283
-13190
-11422
-8204
-4716
-4139
-7430
-12404
-15303
-17342
-19945
-20240
-19724
-19503
-18742
-17845
-16629
-15745
-15450
-15327
-15155
-14947
-14947
-14984
-14812
-14640
-14689
-14738
-14591
-14468
-14505
-14554
-14419
-14222
-14271
-14382
-14234
-14038
-14087
-14173
-14001
-13829
-13841
-13841
-13694
-13485
-13448
-13448
-13227
-12969
-12896
-12871
-12638
-12269
-12183
-12122
-11729
-11360
-11188
-10980
-10611
-10157
-9936
-9801
-9358
-8941
-8793
-8683
-8400
-8130
-8130
-8192
-8155
-8179
-8474
-8965
-9346
-9715
-10366
-11102
-11594
-12011
-12638
-13203
-13510
-13755
-14099
-14480
-14615
-14615
-14824
-15008
-14984
-14898
-14984
-15143
-15070
-14947
-15020
-15119
-15045
-14898
-14971
-15094
-14996
-14861
-14910
-15020
-14947
-14824
-14934
-15045
-14971
-14873
-14971
-15119
-15057
-14947
-15131
-15291
-15180
-15094
-15229
-15413
-15377
-15266
-15401
-15536
-15487
-15413
-15475
-15647
-15561
-15413
-15524
-15659
-15634
-15585
-15696
-15794
-15708
-15610
-15684
-15843
-15757
-15610
-15708
-15917
-15819
-15647
-15733
-15856
-15831
-15684
-15720
-15942
-15868
-15720
-15843
-16003
-15880
-15794
-15892
-15966
-15917
-15794
-15856
-16028
-15966
-15806
-15831
-15991
-15966
-15843
-15954
-16040
-15892
-15757
-15831
-15978
-15978
-15843
-15880
-16003
-15929
-15831
-15892
-15978
-15892
-15757
-15843
-16052
-16028
-15831
-15843
-16003
-15942
-15794
-15892
-15966
-15831
-15770
-15831
-15991
-15954
-15782
-15868
-15978
-15978
-15892
-15856
-15954
-15880
-15671
-15770
-16003
-15880
-15536
-15426
-15413
-15155
-14848
-14848
-14959
-14934
-15070
-15401
-15757
-15806
-15561
-15524
-15720
-15880
-15929
-16003
-16064
-16015
-15966
-16040
-16212
-16138
-15978
-16175
-16359
-16261
-16052
-16077
-16236
-16126
-15929
-15991
-16064
-16015
-15954
-15978
-16015
-15831
-15610
-15561
-15389
-14713
-13804
-12662
-10280
-6435
-3672
-4446
-8572
-12576
-14333
-16801
-19196
-19233
-19184
-19073
-18300
-17329
-16236
-15659
-15413
-15143
-14898
-14836
-14873
-14775
-14541
-14566
-14713
-14529
-14320
-14333
-14443
-14369
-14148
-14198
-14271
-14087
-13964
-13940
-13952
-13878
-13682
-13706
-13780
-13559
-13289
-13264
-13338
-13203
-12932
-12797
-12761
-12539
-12196
-11987
-11864
-11655
-11274
-11004
-10783
-10353
-9899
-9616
-9481
-9150
-8646
-8388
-8253
-7897
-7553
-7528
-7590
-7492
-7467
-7737
-8130
-8450
-8806
-9432
-10280
-10906
-11348
-11938
-12564
-12883
-13092
-13559
-14075
-14259
-14198
-14333
-14627
-14689
-14627
-14677
-14750
-14738
-14664
-14677
-14824
-14799
-14541
-14566
-14787
-14726
-14541
-14517
-14615
-14640
-14529
-14603
-14713
-14603
-14505
-14566
-14750
-14738
-14492
-14554
-14799
-14836
-14750
-14775
-14971
-14996
-14836
-14922
-15082
-15045
-14996
-15045
-15192
-15180
-15045
-15168
-15389
-15389
-15254
-15278
-15327
-15254
-15192
-15315
-15512
-15389
-15217
-15303
-15438
-15389
-15291
-15352
-15475
-15450
-15266
-15352
-15536
-15438
-15340
-15377
-15426
-15389
-15266
-15413
-15610
-15536
-15377
-15327
-15549
-15524
-15266
-15377
-15622
-15524
-15352
-15426
-15573
-15598
-15487
-15499
-15573
-15438
-15254
-15352
-15561
-15499
-15340
-15389
-15549
-15573
-15475
-15475
-15573
-15487
-15327
-15377
-15512
-15549
-15377
-15180
-15364
-15499
-15303
-15131
-15045
-14750
-14431
-14480
-14652
-14529
-14468
-14726
-15155
-15377
-15131
-14934
-15143
-15340
-15340
-15377
-15426
-15499
-15536
-15549
-15745
-15819
-15598
-15536
-15671
-15622
-15426
-15475
-15720
-15757
-15549
-15438
-15561
-15585
-15377
-15364
-15512
-15450
-15155
-14996
-15131
-14713
-13768
-12773
-11139
-7860
-3782
-2038
-4274
-8548
-12171
-15696
-18754
-19331
-18987
-19086
-18644
-17649
-16408
-15463
-15057
-14726
-14468
-14382
-14394
-14320
-14112
-14050
-14136
-14075
-13890
-13854
-13915
-13829
-13694
-13669
-13669
-13559
-13362
-13350
-13497
-13375
-13104
-13080
-13166
-13031
-12761
-12662
-12687
-12564
-12294
-12146
-12146
-11962
-11569
-11348
-11311
-11041
-10599
-10292
-10108
-9825
-9297
-8867
-8695
-8351
-7848
-7504
-7369
-7148
-6779
-6632
-6730
-6718
-6607
-6804
-7283
-7688
-8069
-8683
-9530
-10255
-10734
-11348
-12085
-12527
-12859
-13276
-13706
-13989
-14062
-14247
-14541
-14603
-14480
-14505
-14726
-14762
-14591
-14640
-14799
-14750
-14554
-14505
-14652
-14664
-14517
-14517
-14664
-14652
-14492
-14455
-14627
-14640
-14468
-14468
-14640
-14664
-14517
-14529
-14726
-14750
-14627
-14640
-14824
-14898
-14762
-14775
-15008
-15057
-14934
-14959
-15119
-15119
-14984
-14971
-15131
-15229
-15082
-15082
-15315
-15327
-15168
-15180
-15340
-15340
-15217
-15241
-15413
-15450
-15291
-15266
-15450
-15463
-15291
-15278
-15438
-15487
-15340
-15340
-15487
-15475
-15340
-15340
-15475
-15499
-15364
-15364
-15524
-15536
-15401
-15389
-15524
-15499
-15315
-15327
-15487
-15499
-15364
-15364
-15512
-15549
-15401
-15401
-15512
-15512
-15377
-15352
-15536
-15561
-15401
-15401
-15561
-15573
-15413
-15389
-15549
-15585
-15401
-15364
-15512
-15450
-15278
-15303
-15352
-15205
-14873
-14627
-14603
-14578
-14431
-14320
-14554
-14898
-15057
-15217
-15389
-15303
-15082
-15192
-15573
-15696
-15487
-15450
-15745
-15856
-15720
-15720
-15892
-15929
-15757
-15720
-15880
-15917
-15720
-15684
-15843
-15819
-15684
-15647
-15794
-15794
-15549
-15438
-15549
-15438
-15155
-14836
-14406
-13657
-12134
-9457
-5625
-3131
-4323
-8781
-13424
-16113
-18656
-20019
-19724
-19700
-19012
-17907
-16949
-15966
-15266
-14898
-14885
-14836
-14578
-14468
-14529
-14492
-14320
-14247
-14333
-14333
-14161
-14075
-14173
-14173
-13976
-13890
-13952
-13940
-13719
-13596
-13731
-13694
-13461
-13387
-13424
-13375
-13117
-12920
-12982
-12908
-12601
-12392
-12367
-12220
-11864
-11594
-11495
-11262
-10845
-10513
-10341
-10058
-9567
-9211
-9027
-8757
-8327
-7995
-7934
-7848
-7565
-7418
-7577
-7749
-7799
-8081
-8671
-9211
-9629
-10230
-11004
-11667
-12110
-12527
-13092
-13547
-13731
-13976
-14333
-14529
-14529
-14591
-14787
-14898
-14799
-14750
-14898
-14959
-14799
-14726
-14836
-14861
-14689
-14652
-14775
-14799
-14664
-14603
-14738
-14812
-14677
-14652
-14799
-14873
-14750
-14689
-14873
-14984
-14848
-14836
-15020
-15106
-14984
-14971
-15155
-15217
-15106
-15070
-15241
-15352
-15229
-15192
-15377
-15438
-15303
-15254
-15426
-15524
-15377
-15315
-15487
-15536
-15401
-15389
-15536
-15622
-15512
-15438
-15573
-15634
-15512
-15463
-15598
-15684
-15549
-15487
-15634
-15696
-15573
-15512
-15671
-15733
-15573
-15536
-15708
-15757
-15647
-15585
-15696
-15782
-15659
-15585
-15745
-15794
-15647
-15610
-15720
-15819
-15684
-15585
-15770
-15819
-15684
-15622
-15757
-15831
-15708
-15647
-15782
-15856
-15708
-15659
-15794
-15806
-15671
-15622
-15757
-15831
-15684
-15610
-15782
-15819
-15659
-15622
-15733
-15782
-15684
-15634
-15770
-15831
-15696
-15622
-15770
-15843
-15708
-15659
-15782
-15819
-15684
-15634
-15757
-15806
-15696
-15634
-15757
-15831
-15647
-15487
-15610
-15647
-15401
-15094
-14934
-14799
-14517
-14357
-14308
-14296
-14333
-14640
-15340
-15684
-15475
-15315
-15364
-15549
-15610
-15585
-15733
-15880
-15892
-15929
-16064
-16163
-16052
-15954
-16089
-16138
-15991
-15929
-16077
-16113
-15978
-15892
-15978
-16064
-15880
-15806
-15929
-15880
-15684
-15487
-15499
-15352
-14640
-13927
-12932
-10857
-7098
-3930
-4433
-8376
-13043
-15708
-18287
-20339
-19860
-19552
-19430
-18545
-17329
-16163
-15684
-15401
-15082
-14959
-14971
-14922
-14738
-14578
-14640
-14713
-14529
-14406
-14492
-14517
-14357
-14234
-14283
-14345
-14173
-14013
-14099
-14136
-13940
-13780
-13841
-13878
-13633
-13448
-13522
-13485
-13240
-13031
-13018
-12932
-12638
-12392
-12343
-12196
-11815
-11508
-11385
-11188
-10759
-10366
-10169
-9923
-9444
-9064
-8929
-8769
-8425
-8130
-8106
-8069
-7872
-7835
-8093
-8388
-8585
-8929
-9567
-10243
-10709
-11201
-11925
-12527
-12871
-13178
-13669
-14087
-14185
-14308
-14603
-14812
-14775
-14750
-14922
-15008
-14873
-14799
-14947
-15020
-14873
-14787
-14873
-14947
-14799
-14701
-14836
-14922
-14775
-14689
-14812
-14898
-14762
-14677
-14861
-14959
-14848
-14824
-14984
-15119
-15045
-14959
-15119
-15266
-15192
-15143
-15278
-15401
-15303
-15229
-15401
-15524
-15438
-15389
-15499
-15622
-15561
-15536
-15696
-15806
-15696
-15598
-15708
-15806
-15659
-15585
-15733
-15831
-15696
-15622
-15782
-15880
-15720
-15659
-15782
-15892
-15868
-15745
-15843
-15954
-15819
-15708
-15856
-15929
-15806
-15720
-15831
-15942
-15843
-15733
-15880
-15991
-15843
-15733
-15905
-16015
-15868
-15770
-15868
-15978
-15880
-15782
-15905
-16003
-15905
-15831
-15942
-16052
-15942
-15831
-15954
-16077
-15991
-15843
-15905
-16015
-15917
-15843
-15966
-16089
-15905
-15794
-15929
-15978
-15929
-15880
-15954
-16077
-15954
-15819
-15991
-16089
-15966
-15831
-15929
-16077
-15942
-15831
-15917
-15966
-15856
-15720
-15745
-15647
-15278
-14898
-14836
-14861
-14541
-14394
-14664
-15119
-15573
-15659
-15634
-15647
-15487
-15561
-15942
-16113
-15929
-15819
-16113
-16322
-16150
-16126
-16261
-16285
-16199
-16052
-16175
-16359
-16212
-16028
-16089
-16187
-16113
-16003
-16138
-16249
-16015
-15806
-15831
-15745
-15561
-15217
-14738
-14148
-12846
-10267
-6558
-3967
-4581
-8388
-12662
-14848
-17207
-19295
-19319
-19479
-19233
-18091
-17243
-16457
-15733
-15217
-15119
-15180
-14984
-14799
-14812
-14787
-14615
-14480
-14517
-14554
-14431
-14271
-14320
-14345
-14124
-13964
-14087
-14222
-14050
-13915
-13940
-13890
-13731
-13571
-13596
-13620
-13399
-13166
-13154
-13117
-12871
-12613
-12564
-12527
-12208
-11827
-11631
-11434
-11115
-10734
-10464
-10230
-9813
-9420
-9211
-8978
-8548
-8130
-7995
-7971
-7786
-7553
-7516
-7663
-7799
-7958
-8413
-9051
-9555
-10034
-10734
-11397
-11901
-12318
-12834
-13375
-13682
-13878
-14173
-14517
-14566
-14455
-14578
-14824
-14775
-14677
-14848
-14947
-14787
-14664
-14738
-14848
-14762
-14640
-14701
-14836
-14762
-14603
-14762
-14861
-14701
-14566
-14615
-14762
-14750
-14615
-14701
-14898
-14861
-14750
-14812
-14984
-14959
-14799
-14922
-15180
-15094
-14885
-15045
-15217
-15131
-15033
-15082
-15340
-15327
-15119
-15180
-15327
-15291
-15229
-15364
-15475
-15401
-15217
-15303
-15561
-15463
-15315
-15364
-15426
-15426
-15278
-15389
-15634
-15524
-15352
-15438
-15647
-15610
-15438
-15426
-15450
-15475
-15389
-15364
-15524
-15499
-15340
-15499
-15671
-15585
-15499
-15463
-15524
-15524
-15389
-15475
-15573
-15561
-15475
-15475
-15684
-15634
-15463
-15536
-15696
-15622
-15352
-15475
-15659
-15524
-15463
-15549
-15634
-15573
-15401
-15561
-15819
-15659
-15438
-15426
-15524
-15499
-15364
-15426
-15610
-15499
-15303
-15389
-15512
-15426
-15180
-14971
-14898
-14677
-14455
-14419
-14259
-14161
-14136
-14591
-15327
-15401
-15168
-15082
-15119
-15266
-15401
-15389
-15413
-15634
-15708
-15684
-15843
-15892
-15733
-15794
-15892
-15770
-15684
-15684
-15770
-15782
-15684
-15696
-15831
-15843
-15733
-15720
-15757
-15671
-15413
-15254
-15229
-14787
-14050
-13190
-11717
-8548
-4421
-2394
-4372
-8535
-12146
-15647
-18730
-19454
-19135
-19331
-18938
-17882
-16715
-15794
-15401
-15070
-14812
-14799
-14799
-14677
-14419
-14369
-14468
-14345
-14124
-14124
-14259
-14161
-13964
-13940
-14026
-13927
-13731
-13694
-13804
-13755
-13522
-13485
-13547
-13362
-13129
-13104
-13166
-12969
-12650
-12552
-12527
-12331
-12024
-11864
-11753
-11446
-11016
-10771
-10623
-10255
-9813
-9481
-9236
-8904
-8425
-8155
-7995
-7713
-7381
-7221
-7209
-7123
-7025
-7197
-7639
-7958
-8265
-8892
-9690
-10341
-10869
-11508
-12220
-12748
-13055
-13461
-13976
-14222
-14283
-14517
-14812
-14861
-14799
-14861
-15070
-15106
-14959
-15033
-15192
-15106
-14934
-14947
-15082
-15057
-14910
-14934
-15082
-15020
-14836
-14861
-15008
-14971
-14836
-14861
-15020
-15020
-14848
-14934
-15119
-15094
-14996
-15045
-15266
-15291
-15143
-15205
-15377
-15364
-15291
-15364
-15512
-15499
-15377
-15438
-15585
-15573
-15463
-15487
-15647
-15659
-15536
-15573
-15720
-15745
-15610
-15598
-15757
-15745
-15610
-15634
-15819
-15782
-15598
-15696
-15868
-15831
-15671
-15696
-15856
-15843
-15696
-15745
-15917
-15868
-15733
-15745
-15892
-15880
-15720
-15782
-15929
-15856
-15720
-15745
-15892
-15892
-15757
-15757
-15892
-15905
-15770
-15782
-15942
-15954
-15806
-15806
-15954
-15917
-15782
-15806
-15978
-15966
-15806
-15819
-15991
-16015
-15868
-15892
-16003
-15954
-15794
-15856
-16003
-15966
-15819
-15856
-16077
-16052
-15856
-15831
-15892
-15868
-15708
-15634
-15598
-15315
-14959
-14812
-14873
-14713
-14394
-14505
-14996
-15536
-15708
-15671
-15708
-15598
-15536
-15770
-16003
-15966
-15856
-16040
-16298
-16261
-16187
-16212
-16347
-16371
-16187
-16187
-16359
-16335
-16126
-16077
-16236
-16261
-16089
-16101
-16236
-16187
-15978
-15892
-15905
-15794
-15450
-14898
-14369
-13264
-11016
-7430
-4286
-4360
-7897
-12748
-15942
-18447
-20339
-20117
-20031
-19835
-18730
-17649
-16728
-16064
-15524
-15352
-15401
-15229
-15045
-14947
-15008
-14984
-14762
-14701
-14787
-14738
-14529
-14492
-14627
-14578
-14357
-14283
-14382
-14345
-14112
-14026
-14124
-14062
-13866
-13768
-13780
-13719
-13448
-13276
-13313
-13190
-12896
-12711
-12675
-12515
-12122
-11864
-11778
-11495
-11041
-10759
-10587
-10280
-9837
-9469
-9272
-9027
-8621
-8364
-8327
-8179
-7885
-7848
-8056
-8179
-8278
-8597
-9211
-9788
-10218
-10832
-11594
-12183
-12564
-13018
-13608
-13964
-14112
-14382
-14775
-14934
-14885
-14947
-15143
-15229
-15082
-15070
-15278
-15278
-15094
-15045
-15180
-15205
-15045
-15008
-15155
-15180
-15008
-14996
-15143
-15143
-14996
-14971
-15143
-15192
-15070
-15070
-15241
-15303
-15155
-15168
-15389
-15438
-15303
-15315
-15524
-15585
-15487
-15487
-15647
-15733
-15598
-15573
-15757
-15794
-15684
-15684
-15843
-15905
-15782
-15757
-15905
-15978
-15843
-15819
-15978
-16003
-15880
-15868
-16003
-16077
-15954
-15917
-16064
-16077
-15942
-15917
-16077
-16138
-15991
-15929
-16101
-16150
-16003
-15978
-16126
-16150
-16003
-15978
-16138
-16150
-16015
-16003
-16150
-16187
-16064
-16040
-16163
-16187
-16052
-16015
-16175
-16199
-16064
-16052
-16175
-16236
-16138
-16077
-16212
-16236
-16089
-16064
-16224
-16261
-16089
-16052
-16175
-16224
-16101
-16064
-16199
-16224
-16077
-16064
-16212
-16236
-16101
-16052
-16187
-16236
-16052
-15966
-16064
-16101
-15942
-15794
-15770
-15549
-15143
-14910
-14947
-14848
-14566
-14615
-15045
-15647
-15917
-15831
-15856
-15806
-15733
-15868
-16126
-16163
-16015
-16150
-16445
-16482
-16359
-16347
-16457
-16507
-16384
-16335
-16445
-16482
-16335
-16273
-16421
-16470
-16335
-16285
-16408
-16396
-16212
-16064
-16089
-16040
-15733
-15254
-14775
-13903
-12097
-8941
-5465
-4556
-7086
-11790
-15303
-17514
-19995
-20388
-20044
-20056
-19098
-18042
-17071
-16285
-15733
-15426
-15475
-15426
-15180
-15033
-15094
-15119
-14898
-14762
-14848
-14885
-14713
-14591
-14689
-14701
-14517
-14419
-14529
-14517
-14296
-14185
-14259
-14222
-14013
-13866
-13927
-13903
-13657
-13485
-13485
-13424
-13129
-12896
-12908
-12785
-12417
-12122
-11999
-11803
-11397
-11029
-10845
-10623
-10181
-9801
-9641
-9420
-9002
-8707
-8658
-8560
-8302
-8155
-8278
-8437
-8523
-8732
-9260
-9850
-10255
-10771
-11508
-12134
-12539
-12957
-13547
-13952
-14124
-14333
-14689
-14947
-14959
-14996
-15192
-15266
-15168
-15131
-15266
-15327
-15192
-15106
-15205
-15291
-15131
-15045
-15180
-15217
-15070
-14984
-15106
-15192
-15082
-15008
-15143
-15229
-15106
-15045
-15217
-15340
-15217
-15155
-15352
-15487
-15352
-15303
-15463
-15585
-15475
-15401
-15610
-15708
-15585
-15549
-15708
-15819
-15708
-15647
-15794
-15868
-15770
-15733
-15880
-15942
-15843
-15782
-15892
-15991
-15880
-15819
-15942
-16040
-15917
-15831
-15954
-16064
-15942
-15843
-16003
-16077
-15929
-15868
-16003
-16089
-15978
-15905
-16015
-16101
-16003
-15917
-16003
-16138
-16003
-15905
-16089
-16150
-16015
-15954
-16089
-16199
-16077
-15991
-16138
-16187
-16028
-15954
-16101
-16199
-16089
-15978
-16101
-16212
-16077
-15978
-16113
-16199
-16077
-15991
-16101
-16187
-16052
-15966
-16077
-16175
-16064
-15954
-16089
-16187
-16040
-15966
-16113
-16163
-16028
-15954
-16028
-16126
-16028
-15905
-15966
-15991
-15892
-15733
-15671
-15524
-15131
-14812
-14799
-14762
-14443
-14369
-14750
-15303
-15696
-15733
-15745
-15757
-15598
-15696
-15954
-16040
-15966
-15978
-16261
-16384
-16249
-16187
-16322
-16457
-16322
-16199
-16322
-16408
-16285
-16199
-16322
-16396
-16224
-16101
-16236
-16335
-16138
-15942
-15978
-15942
-15720
-15303
-14824
-14198
-12810
-10157
-6595
-4556
-5833
-10108
-14296
-16322
-18779
-20339
-19982
-19982
-19417
-18275
-17354
-16519
-15868
-15463
-15413
-15426
-15217
-15020
-15070
-15168
-14984
-14762
-14848
-14959
-14775
-14591
-14701
-14762
-14640
-14480
-14468
-14517
-14357
-14185
-14271
-14333
-14099
-13927
-13976
-13976
-13768
-13596
-13571
-13522
-13301
-13018
-12994
-12932
-12576
-12269
-12171
-12024
-11618
-11225
-11066
-10881
-10439
-9923
-9702
-9567
-9174
-8855
-8720
-8572
-8327
-8081
-8192
-8425
-8511
-8621
-9027
-9665
-10132
-10525
-11201
-11888
-12318
-12687
-13240
-13719
-13964
-14185
-14541
-14848
-14848
-14836
-15020
-15168
-15155
-15057
-15155
-15303
-15168
-15020
-15168
-15278
-15119
-14971
-15008
-15082
-15033
-14934
-15094
-15192
-15057
-14971
-15008
-15082
-15020
-14947
-15094
-15229
-15168
-15045
-15168
-15340
-15217
-15094
-15266
-15426
-15352
-15303
-15475
-15585
-15463
-15327
-15389
-15573
-15561
-15463
-15573
-15733
-15684
-15512
-15536
-15671
-15622
-15524
-15622
-15720
-15622
-15512
-15634
-15757
-15708
-15585
-15659
-15819
-15770
-15659
-15696
-15868
-15868
-15745
-15782
-15843
-15733
-15634
-15782
-15942
-15819
-15671
-15770
-15917
-15794
-15720
-15819
-15843
-15733
-15622
-15757
-15929
-15831
-15708
-15856
-15991
-15856
-15708
-15819
-15942
-15843
-15696
-15733
-15892
-15843
-15720
-15806
-15917
-15868
-15720
-15757
-15905
-15831
-15696
-15806
-15966
-15843
-15733
-15819
-15929
-15831
-15634
-15819
-16003
-15770
-15561
-15647
-15708
-15463
-15094
-14934
-14934
-14762
-14492
-14345
-14443
-14578
-14934
-15413
-15549
-15463
-15303
-15352
-15647
-15757
-15598
-15647
-15991
-16077
-15905
-16052
-16175
-15978
-15868
-16003
-16101
-15966
-15880
-16015
-16126
-16040
-15917
-16003
-16163
-16064
-15856
-15806
-15819
-15671
-15413
-15291
-14984
-14333
-13362
-11680
-8486
-4789
-3549
-6116
-10673
-13448
-15241
-18017
-19159
-19012
-19123
-18619
-17845
-16764
-15770
-15377
-15143
-14947
-14750
-14713
-14787
-14652
-14492
-14492
-14517
-14369
-14210
-14271
-14394
-14308
-14099
-14099
-14148
-14001
-13854
-13915
-14013
-13866
-13694
-13682
-13645
-13473
-13264
-13240
-13301
-13178
-12957
-12748
-12662
-12429
-12036
-11925
-11864
-11545
-11139
-10869
-10685
-10292
-9825
-9641
-9444
-8965
-8474
-8253
-8179
-7958
-7663
-7590
-7627
-7565
-7553
-7860
-8376
-8830
-9174
-9739
-10550
-11139
-11631
-12257
-12810
-13154
-13375
-13804
-14283
-14455
-14480
-14529
-14713
-14787
-14775
-14885
-14984
-14922
-14812
-14824
-14971
-14971
-14750
-14775
-14898
-14812
-14836
-14885
-14885
-14873
-14750
-14775
-14947
-14873
-14713
-14775
-14947
-14959
-14812
-14885
-15082
-15057
-14959
-15057
-15205
-15241
-15168
-15229
-15389
-15340
-15229
-15340
-15463
-15426
-15352
-15426
-15610
-15585
-15426
-15463
-15622
-15610
-15475
-15499
-15647
-15622
-15487
-15549
-15733
-15671
-15512
-15598
-15733
-15684
-15549
-15573
-15745
-15745
-15634
-15659
-15770
-15720
-15536
-15585
-15745
-15720
-15585
-15647
-15856
-15831
-15684
-15696
-15819
-15806
-15659
-15708
-15868
-15843
-15708
-15794
-15917
-15856
-15708
-15696
-15856
-15868
-15757
-15794
-15892
-15831
-15671
-15696
-15892
-15856
-15684
-15733
-15880
-15868
-15733
-15770
-15892
-15831
-15696
-15708
-15843
-15782
-15622
-15659
-15720
-15487
-15082
-14898
-14934
-14836
-14505
-14369
-14578
-14750
-15143
-15561
-15659
-15549
-15327
-15475
-15831
-15831
-15684
-15806
-16138
-16212
-16015
-16089
-16285
-16199
-16113
-16150
-16261
-16249
-16089
-16052
-16199
-16187
-16052
-16052
-16150
-16175
-15978
-15868
-15966
-15782
-15512
-15327
-14934
-14234
-12969
-10783
-7258
-4200
-4335
-8020
-12490
-15008
-17415
-19651
-19810
-19663
-19356
-18484
-17649
-16592
-15770
-15401
-15315
-15205
-14934
-14836
-14910
-14848
-14652
-14591
-14701
-14652
-14419
-14369
-14443
-14394
-14210
-14148
-14271
-14185
-13940
-13940
-14050
-13964
-13743
-13682
-13743
-13645
-13399
-13301
-13325
-13215
-12932
-12761
-12724
-12552
-12196
-12011
-11925
-11631
-11238
-10943
-10795
-10513
-10058
-9788
-9616
-9309
-8929
-8634
-8523
-8364
-8069
-7983
-8130
-8167
-8155
-8425
-8941
-9395
-9764
-10353
-11090
-11667
-12097
-12613
-13227
-13633
-13817
-14099
-14492
-14701
-14664
-14775
-15033
-15057
-14971
-15008
-15155
-15180
-15033
-15070
-15205
-15168
-15020
-15008
-15168
-15106
-14910
-14934
-15057
-15033
-14885
-14848
-15008
-15057
-14910
-14922
-15082
-15106
-14996
-14984
-15168
-15217
-15106
-15131
-15315
-15364
-15229
-15254
-15438
-15499
-15377
-15352
-15536
-15536
-15401
-15463
-15622
-15634
-15499
-15475
-15634
-15708
-15561
-15561
-15708
-15708
-15622
-15585
-15733
-15806
-15659
-15647
-15794
-15806
-15659
-15647
-15794
-15819
-15671
-15659
-15819
-15831
-15684
-15647
-15782
-15856
-15708
-15659
-15831
-15856
-15696
-15696
-15868
-15868
-15733
-15745
-15880
-15892
-15696
-15684
-15868
-15880
-15745
-15696
-15843
-15880
-15733
-15684
-15831
-15880
-15720
-15696
-15856
-15843
-15733
-15733
-15868
-15917
-15745
-15720
-15880
-15917
-15782
-15745
-15892
-15917
-15757
-15745
-15868
-15892
-15733
-15671
-15806
-15806
-15634
-15585
-15647
-15463
-15008
-14775
-14762
-14701
-14369
-14234
-14541
-14934
-15315
-15561
-15634
-15561
-15352
-15426
-15794
-15880
-15671
-15684
-16028
-16150
-15966
-15978
-16163
-16163
-16015
-15954
-16089
-16163
-15978
-15929
-16089
-16089
-15942
-15880
-16003
-16064
-15843
-15733
-15794
-15671
-15413
-15045
-14591
-13878
-12417
-9862
-6263
-3905
-5011
-9322
-13804
-16089
-18496
-20019
-19688
-19651
-19061
-18054
-17170
-16163
-15438
-15082
-15106
-15082
-14824
-14677
-14738
-14713
-14517
-14419
-14541
-14529
-14333
-14247
-14345
-14369
-14185
-14075
-14148
-14112
-13878
-13780
-13878
-13817
-13608
-13522
-13547
-13485
-13252
-13129
-13166
-13080
-12810
-12589
-12576
-12441
-12073
-11815
-11729
-11545
-11127
-10783
-10636
-10378
-9923
-9592
-9481
-9236
-8781
-8486
-8437
-8302
-7995
-7848
-7983
-8069
-8081
-8290
-8720
-9236
-9653
-10169
-10930
-11581
-12011
-12453
-13031
-13522
-13694
-13940
-14357
-14578
-14591
-14664
-14873
-15008
-14898
-14861
-15020
-15045
-14898
-14848
-14959
-15008
-14848
-14775
-14898
-14971
-14799
-14726
-14898
-14922
-14775
-14750
-14885
-14959
-14836
-14787
-14959
-15033
-14922
-14885
-15045
-15155
-15070
-15057
-15217
-15291
-15205
-15180
-15327
-15426
-15303
-15266
-15438
-15499
-15413
-15389
-15536
-15610
-15512
-15475
-15634
-15720
-15561
-15499
-15671
-15757
-15647
-15573
-15708
-15782
-15659
-15610
-15770
-15843
-15720
-15647
-15770
-15831
-15708
-15659
-15806
-15905
-15757
-15684
-15831
-15917
-15770
-15684
-15831
-15905
-15794
-15733
-15856
-15929
-15806
-15745
-15880
-15966
-15831
-15770
-15917
-15991
-15843
-15757
-15880
-15991
-15880
-15831
-15942
-16003
-15880
-15819
-15966
-16040
-15917
-15843
-15991
-16040
-15905
-15831
-15978
-16028
-15831
-15720
-15843
-15892
-15659
-15352
-15155
-15045
-14726
-14492
-14480
-14419
-14419
-14726
-15389
-15782
-15598
-15450
-15524
-15696
-15794
-15770
-15868
-16064
-16064
-16052
-16212
-16285
-16175
-16077
-16199
-16298
-16138
-16040
-16175
-16236
-16101
-16028
-16113
-16175
-16028
-15892
-15978
-15978
-15745
-15536
-15573
-15266
-14505
-13657
-12380
-9764
-5956
-4163
-6202
-10783
-14431
-16249
-19000
-20314
-19663
-19577
-19147
-18214
-17010
-15966
-15610
-15413
-15131
-14934
-14959
-14959
-14762
-14652
-14726
-14738
-14566
-14419
-14517
-14578
-14406
-14259
-14333
-14394
-14222
-14050
-14099
-14136
-13964
-13804
-13854
-13866
-13657
-13448
-13497
-13497
-13227
-12994
-13006
-12920
-12613
-12343
-12282
-12146
-11790
-11446
-11299
-11139
-10722
-10316
-10144
-9923
-9493
-9125
-9014
-8867
-8535
-8278
-8278
-8314
-8179
-8179
-8511
-8867
-9150
-9530
-10157
-10845
-11299
-11753
-12429
-12994
-13313
-13620
-14062
-14443
-14517
-14591
-14848
-15020
-15008
-14947
-15106
-15254
-15143
-15020
-15106
-15205
-15119
-15008
-15119
-15241
-15106
-14984
-15106
-15205
-15082
-15020
-15192
-15278
-15155
-15082
-15205
-15364
-15352
-15303
-15426
-15585
-15536
-15450
-15585
-15770
-15659
-15585
-15782
-15917
-15892
-15831
-15905
-16003
-15892
-15782
-15978
-16089
-15966
-15942
-16077
-16224
-16126
-16015
-16163
-16261
-16126
-16040
-16187
-16285
-16138
-16028
-16199
-16371
-16236
-16089
-16212
-16347
-16212
-16113
-16273
-16408
-16285
-16138
-16212
-16310
-16249
-16199
-16335
-16457
-16285
-16175
-16310
-16396
-16347
-16224
-16273
-16384
-16285
-16199
-16298
-16408
-16298
-16187
-16310
-16371
-16249
-16187
-16335
-16494
-16384
-16261
-16359
-16433
-16347
-16261
-16298
-16421
-16347
-16175
-16249
-16347
-16212
-16113
-16224
-16335
-16126
-15757
-15598
-15475
-15205
-14971
-14861
-14934
-15033
-15266
-15868
-16175
-15991
-15843
-15929
-16150
-16298
-16298
-16273
-16433
-16556
-16470
-16556
-16703
-16592
-16507
-16580
-16703
-16629
-16482
-16580
-16678
-16592
-16494
-16556
-16642
-16482
-16335
-16384
-16408
-16150
-15942
-15819
-15426
-14713
-13583
-11631
-8155
-4839
-4556
-7872
-12453
-14627
-16310
-19123
-19786
-19565
-19638
-18963
-18165
-17084
-16163
-15831
-15720
-15573
-15364
-15364
-15413
-15205
-15045
-15106
-15131
-14971
-14812
-14861
-14984
-14812
-14652
-14762
-14762
-14603
-14455
-14505
-14566
-14382
-14222
-14283
-14308
-14087
-13890
-13890
-13866
-13694
-13510
-13448
-13338
-13006
-12699
-12613
-12515
-12232
-11888
-11643
-11459
-10967
-10464
-10255
-10058
-9678
-9272
-9064
-8929
-8609
-8376
-8425
-8511
-8425
-8413
-8720
-9260
-9739
-10108
-10722
-11483
-11999
-12380
-12994
-13633
-13915
-14112
-14468
-14812
-14959
-15020
-15217
-15364
-15315
-15266
-15426
-15634
-15549
-15364
-15413
-15512
-15438
-15303
-15315
-15463
-15463
-15315
-15377
-15475
-15327
-15217
-15352
-15561
-15524
-15303
-15315
-15463
-15413
-15389
-15487
-15573
-15499
-15438
-15634
-15757
-15733
-15684
-15745
-15905
-15819
-15647
-15819
-15954
-15868
-15782
-15831
-16015
-16003
-15794
-15856
-16089
-16089
-15917
-15942
-16064
-15978
-15819
-15966
-16089
-16015
-15954
-15966
-16077
-15991
-15917
-16028
-16077
-16015
-15942
-16040
-16113
-15978
-15819
-15917
-16138
-16101
-15929
-15966
-16064
-15991
-15929
-15966
-16077
-16028
-15856
-15991
-16138
-16003
-15905
-15942
-16040
-15991
-15880
-16015
-16199
-16101
-15892
-15966
-16150
-16052
-15892
-15991
-16101
-15991
-15819
-15843
-16028
-15966
-15782
-15770
-15757
-15499
-15168
-15057
-15082
-14885
-14566
-14591
-14824
-15155
-15463
-15622
-15794
-15610
-15364
-15610
-15966
-15954
-15856
-16040
-16273
-16187
-16028
-16113
-16310
-16236
-16064
-16150
-16249
-16224
-16138
-16175
-16273
-16175
-16028
-16040
-16163
-16064
-15806
-15745
-15782
-15622
-15168
-14627
-14001
-12822
-10304
-6398
-3438
-3807
-7492
-11704
-14640
-17415
-19196
-19233
-19454
-19430
-18435
-17563
-16715
-15843
-15254
-15094
-15143
-14996
-14726
-14738
-14934
-14738
-14455
-14443
-14505
-14455
-14308
-14345
-14529
-14320
-14038
-14075
-14124
-13976
-13841
-13829
-13792
-13719
-13497
-13424
-13608
-13436
-13043
-12883
-12883
-12711
-12355
-12196
-12208
-11974
-11557
-11311
-11201
-10881
-10439
-10181
-9948
-9506
-9064
-8806
-8585
-8192
-7737
-7516
-7479
-7369
-7172
-7160
-7418
-7602
-7762
-8253
-8953
-9543
-10034
-10685
-11422
-11962
-12392
-12908
-13448
-13768
-13903
-14185
-14529
-14591
-14517
-14615
-14824
-14836
-14677
-14738
-14947
-14922
-14799
-14885
-14971
-14873
-14787
-14812
-14947
-14898
-14677
-14689
-14836
-14812
-14701
-14775
-14959
-14873
-14738
-14812
-14959
-14971
-14848
-14885
-15082
-15070
-14971
-15131
-15327
-15291
-15168
-15241
-15413
-15450
-15327
-15352
-15536
-15512
-15413
-15499
-15671
-15671
-15512
-15524
-15684
-15647
-15536
-15610
-15757
-15757
-15610
-15647
-15806
-15733
-15598
-15659
-15794
-15794
-15647
-15659
-15831
-15794
-15634
-15757
-15892
-15782
-15671
-15733
-15880
-15843
-15696
-15720
-15880
-15880
-15733
-15794
-15929
-15868
-15708
-15733
-15905
-15892
-15770
-15806
-15954
-15929
-15782
-15806
-15917
-15917
-15770
-15757
-15929
-15929
-15770
-15794
-15966
-15978
-15794
-15794
-15942
-15905
-15770
-15770
-15856
-15831
-15671
-15585
-15524
-15229
-14922
-14775
-14861
-14689
-14320
-14468
-14922
-15426
-15610
-15585
-15659
-15549
-15487
-15733
-15942
-15905
-15856
-16015
-16236
-16224
-16113
-16187
-16298
-16261
-16126
-16126
-16249
-16212
-16064
-16089
-16236
-16199
-16052
-16052
-16187
-16113
-15868
-15770
-15782
-15634
-15131
-14554
-13878
-12367
-9358
-5440
-3537
-5342
-9751
-13743
-16433
-19184
-20093
-19626
-19835
-19282
-18091
-17035
-16236
-15696
-15278
-15168
-15205
-15082
-14848
-14750
-14836
-14799
-14603
-14566
-14677
-14652
-14455
-14406
-14492
-14406
-14198
-14136
-14210
-14124
-13903
-13878
-13952
-13841
-13633
-13559
-13596
-13473
-13166
-13055
-13104
-12932
-12589
-12466
-12429
-12208
-11827
-11557
-11459
-11176
-10685
-10402
-10243
-9911
-9457
-9150
-9014
-8732
-8314
-8106
-8093
-7971
-7762
-7774
-8020
-8216
-8364
-8793
-9481
-10071
-10488
-11078
-11852
-12392
-12724
-13178
-13694
-14050
-14173
-14369
-14713
-14824
-14750
-14848
-15033
-15057
-14947
-14947
-15119
-15106
-14922
-14898
-15070
-15033
-14836
-14836
-14934
-14947
-14824
-14799
-14934
-14984
-14848
-14848
-15020
-15008
-14873
-14922
-15070
-15082
-14971
-14996
-15192
-15241
-15131
-15131
-15303
-15352
-15254
-15278
-15438
-15475
-15389
-15401
-15549
-15585
-15450
-15463
-15647
-15659
-15524
-15499
-15684
-15733
-15585
-15585
-15757
-15770
-15610
-15634
-15819
-15819
-15671
-15671
-15819
-15819
-15708
-15720
-15856
-15868
-15757
-15720
-15856
-15917
-15745
-15720
-15892
-15880
-15770
-15770
-15917
-15942
-15770
-15782
-15954
-15954
-15794
-15782
-15942
-15978
-15831
-15843
-15978
-15991
-15868
-15843
-15991
-16040
-15868
-15819
-15978
-15991
-15856
-15831
-15991
-16028
-15868
-15843
-15978
-16015
-15880
-15831
-16015
-16015
-15819
-15843
-16015
-16003
-15892
-15880
-15978
-15991
-15782
-15733
-15892
-15770
-15426
-15143
-15033
-14898
-14701
-14505
-14505
-14689
-14898
-15413
-15868
-15843
-15598
-15487
-15733
-15991
-15892
-15831
-16064
-16224
-16187
-16187
-16347
-16384
-16249
-16212
-16359
-16396
-16212
-16199
-16359
-16359
-16212
-16163
-16273
-16335
-16150
-16040
-16126
-16052
-15757
-15647
-15549
-15020
-14198
-12994
-10894
-7258
-4089
-4581
-8732
-13473
-15978
-18521
-20474
-20105
-19835
-19491
-18644
-17612
-16421
-15806
-15598
-15463
-15254
-15106
-15155
-15082
-14861
-14775
-14885
-14873
-14664
-14603
-14726
-14713
-14541
-14468
-14578
-14541
-14320
-14222
-14333
-14320
-14087
-13964
-14026
-13964
-13731
-13596
-13620
-13510
-13227
-13080
-13080
-12908
-12589
-12367
-12282
-12097
-11704
-11397
-11274
-11016
-10550
-10218
-10058
-9788
-9334
-9014
-8929
-8707
-8413
-8241
-8290
-8302
-8179
-8290
-8683
-9088
-9383
-9862
-10611
-11213
-11655
-12220
-12896
-13375
-13608
-13940
-14419
-14689
-14738
-14873
-15155
-15229
-15119
-15131
-15315
-15401
-15266
-15217
-15364
-15401
-15254
-15192
-15315
-15352
-15180
-15119
-15291
-15315
-15131
-15106
-15241
-15303
-15180
-15143
-15315
-15389
-15266
-15254
-15438
-15536
-15413
-15413
-15610
-15684
-15561
-15536
-15708
-15819
-15696
-15659
-15868
-15929
-15794
-15794
-15978
-16028
-15905
-15880
-16028
-16089
-15954
-15942
-16089
-16126
-15991
-15966
-16126
-16163
-16028
-16015
-16150
-16199
-16089
-16052
-16199
-16249
-16089
-16077
-16212
-16273
-16150
-16077
-16236
-16298
-16126
-16089
-16249
-16298
-16163
-16101
-16261
-16310
-16175
-16113
-16249
-16310
-16175
-16138
-16285
-16359
-16212
-16150
-16310
-16359
-16236
-16175
-16310
-16384
-16249
-16199
-16335
-16371
-16249
-16199
-16310
-16359
-16224
-16163
-16310
-16347
-16224
-16187
-16298
-16359
-16199
-16101
-16199
-16175
-16040
-15966
-15991
-15831
-15438
-15143
-15106
-15082
-14750
-14640
-14996
-15463
-15856
-15978
-16028
-16003
-15819
-15917
-16273
-16335
-16187
-16249
-16556
-16666
-16494
-16507
-16691
-16740
-16617
-16543
-16666
-16728
-16556
-16507
-16654
-16666
-16519
-16433
-16543
-16592
-16384
-16224
-16298
-16212
-15966
-15622
-15143
-14480
-13092
-10562
-7037
-4789
-5907
-10132
-14480
-16642
-19049
-20633
-20314
-20339
-19823
-18717
-17784
-16850
-16175
-15794
-15806
-15770
-15512
-15377
-15426
-15438
-15229
-15082
-15155
-15155
-14984
-14898
-14996
-14984
-14787
-14701
-14775
-14775
-14591
-14443
-14505
-14529
-14345
-14173
-14210
-14210
-13964
-13768
-13792
-13743
-13473
-13301
-13252
-13117
-12810
-12539
-12466
-12232
-11803
-11495
-11336
-11102
-10685
-10255
-10095
-9887
-9432
-9100
-9076
-9039
-8781
-8560
-8671
-8806
-8781
-8990
-9481
-9997
-10402
-10918
-11655
-12294
-12711
-13154
-13731
-14210
-14419
-14603
-14971
-15254
-15217
-15266
-15561
-15659
-15536
-15499
-15659
-15720
-15499
-15426
-15585
-15622
-15512
-15401
-15475
-15585
-15475
-15401
-15561
-15647
-15549
-15438
-15573
