# aauwss ecg epoch, one sample per line
# source AAUWSS (Aalborg University Wearable Sleep Study) v1.1, Zenodo 10.5281/zenodo.16919071
# licence CC-BY-4.0 - Djanian S, Nielsen T D, Nielsen S H, Bruun A (2025)
# subject 12
# fs_hz 200.0
# samples 6000
# scale 0.1  (value = count * scale, arbitrary published units, NOT mV)
# source_row 450 of 901
# stage_label N2
# epoch 451.0
63147
63392
63589
63316
63129
63373
63467
63166
63025
63260
63382
63110
62903
63138
63307
63035
62837
63053
63204
62950
62772
62997
63129
62828
62659
62931
63053
62772
62631
62903
63025
62743
62584
62847
62978
62687
62546
62800
62959
62687
62518
62781
62922
62668
62518
62772
62922
62640
62537
62837
62988
62969
63025
63232
63457
63232
63006
63316
63354
62988
62875
62922
62969
62809
62621
62762
62678
62227
62020
62264
62424
62170
62001
62283
62452
62180
62001
62274
62452
62217
62086
62339
62490
62274
62161
62461
62659
62415
62405
62819
63157
62941
62734
63721
66605
71500
75709
78011
76179
68785
62725
61278
61860
62593
62734
62969
63354
63335
63363
63758
63918
63683
63598
63899
64096
63880
63758
64096
64275
64031
63965
64284
64453
64247
64190
64500
64698
64538
64463
64801
65045
64829
64792
65149
65365
65243
65233
65647
65929
65825
65872
66342
66727
66699
66821
67394
67836
67892
68108
68691
69170
69226
69349
69912
70260
70081
69912
69950
69687
68869
68043
67545
66981
66051
65299
65083
64810
64181
63805
63890
63880
63514
63326
63551
63645
63345
63176
63439
63608
63354
63194
63448
63627
63354
63232
63542
63655
63392
63251
63514
63664
63410
63288
63504
63617
63382
63251
63533
63683
63363
63213
63495
63608
63307
63157
63448
63551
63213
63063
63298
63410
63147
62988
63241
63373
63082
62950
63185
63298
63044
62894
63166
63298
63016
62875
63129
63260
63006
62865
63110
63223
62941
62828
63082
63194
62941
62800
63072
63223
62950
62819
63063
63204
62941
62781
63072
63204
62894
62762
63025
63147
62903
62781
63072
63241
62997
63025
63580
63767
63476
63476
63711
63767
63439
63119
63373
63514
63063
62894
63194
63316
62875
62490
62668
62772
62471
62349
62640
62743
62480
62377
62659
62790
62518
62405
62715
62856
62602
62480
62781
62941
62706
62631
63035
63326
63270
63185
63420
64331
66539
71096
75747
78284
76593
69480
63467
61653
61898
62856
63382
63580
63533
63598
64068
64256
63974
63890
64190
64369
64115
64059
64416
64557
64331
64256
64585
64754
64529
64472
64792
64980
64754
64698
65064
65243
65045
64998
65355
65581
65402
65393
65788
66032
65938
65985
66417
66755
66699
66812
67394
67808
67826
68033
68681
69142
69189
69414
70006
70382
70326
70363
70636
70561
69950
69302
68916
68306
67281
66483
66154
65722
64989
64519
64500
64406
63993
63749
63965
64040
63721
63598
63852
63965
63674
63551
63871
63984
63674
63580
63890
63984
63711
63645
63899
63993
63730
63617
63908
64031
63749
63617
63890
64012
63711
63608
63890
63993
63711
63570
63805
63890
63617
63467
63739
63852
63542
63420
63692
63796
63504
63373
63627
63711
63429
63335
63598
63702
63401
63279
63570
63664
63382
63260
63533
63674
63382
63251
63523
63636
63354
63241
63495
63608
63345
63213
63486
63627
63326
63185
63457
63580
63316
63213
63514
63608
63345
63335
63655
63908
63852
63767
64087
64284
63937
63805
64002
63955
63674
63476
63608
63721
63467
63326
63392
63251
62903
62790
63072
63176
62912
62772
63035
63194
62912
62790
63100
63213
62922
62809
63110
63223
62978
62931
63260
63392
63241
63279
63730
63955
63598
64040
66567
71218
75493
77974
77410
71087
64228
61870
62386
63476
63598
63495
63993
64331
64200
64200
64500
64651
64406
64350
64688
64829
64613
64547
64839
64980
64773
64707
65055
65233
64951
64914
65299
65431
65214
65196
65534
65731
65562
65571
65938
66126
65994
66041
66455
66727
66605
66708
67216
67545
67535
67742
68343
68775
68813
69048
69687
70100
70157
70345
70814
71087
70805
70532
70457
70006
69085
68230
67742
67178
66257
65600
65440
65205
64679
64369
64538
64519
64106
63965
64218
64265
63984
63899
64153
64247
63993
63908
64190
64284
64012
63899
64181
64303
64012
63880
64153
64256
63993
63890
64172
64275
63946
63852
64125
64209
63880
63739
64040
64096
63805
63692
63927
64040
63739
63598
63861
63927
63598
63533
63843
63852
63542
63476
63739
63824
63486
63345
63645
63730
63439
63363
63645
63702
63410
63335
63617
63692
63373
63270
63542
63617
63345
63251
63542
63636
63316
63185
63476
63561
63241
63185
63457
63542
63279
63176
63467
63627
63335
63298
63852
64021
63711
63767
64021
64040
63758
63533
63805
63843
63354
63251
63533
63608
63166
62856
63025
63044
62790
62706
62969
63016
62706
62631
62931
63025
62715
62668
62997
63053
62790
62715
63006
63138
62865
62837
63194
63382
63270
63429
63655
63636
64275
67573
73201
77156
78256
74958
68033
63279
61747
62161
63307
63551
63204
63382
63955
64218
64021
63974
64303
64416
64172
64096
64435
64594
64331
64331
64688
64763
64510
64444
64810
64961
64688
64688
65036
65177
64970
64980
65365
65534
65327
65346
65741
65910
65741
65872
66323
66586
66502
66605
67169
67554
67563
67817
68465
68841
68813
69095
69715
70053
70034
70175
70579
70579
69987
69471
69179
68541
67451
66652
66304
65731
64942
64510
64444
64256
63805
63580
63749
63749
63429
63307
63542
63627
63373
63288
63551
63617
63307
63232
63551
63608
63316
63298
63570
63580
63288
63279
63551
63580
63270
63194
63504
63589
63260
63185
63457
63448
63147
63063
63316
63392
63091
62978
63251
63298
62950
62884
63185
63204
62894
62837
63119
63176
62847
62743
63016
63091
62781
62696
63016
63044
62696
62659
62950
62969
62659
62602
62922
62978
62668
62593
62865
62912
62584
62555
62865
62931
62725
62696
63166
63401
63072
63082
63457
63486
63204
62997
63157
63251
62781
62602
62959
63044
62640
62311
62433
62471
62142
62057
62368
62415
62095
62067
62386
62415
62142
62133
62396
62461
62198
62151
62490
62565
62311
62321
62687
62875
62734
62903
63194
63223
63805
67009
72637
76602
77974
75071
67939
62753
61155
61710
62922
63176
62903
63082
63580
63824
63664
63608
63927
64040
63796
63805
64153
64247
63965
63993
64359
64435
64190
64200
64547
64651
64416
64425
64754
64886
64669
64726
65120
65252
65036
65111
65543
65722
65553
65656
66135
66361
66276
66464
67028
67394
67385
67648
68249
68634
68700
68992
69612
69950
69894
70072
70429
70373
69837
69311
68973
68296
67281
66502
66116
65618
64848
64425
64435
64256
63814
63617
63805
63824
63467
63392
63674
63683
63410
63363
63655
63721
63401
63382
63730
63786
63495
63467
63758
63786
63523
63495
63767
63843
63551
63476
63777
63814
63486
63457
63767
63758
63467
63410
63645
63674
63335
63279
63589
63598
63298
63223
63467
63504
63204
63157
63439
63467
63176
63147
63410
63439
63138
63072
63382
63410
63091
63053
63345
63392
63091
63044
63326
63373
63072
62997
63288
63335
63035
63006
63316
63335
63025
63006
63326
63363
63044
63091
63457
63617
63589
63645
63908
64049
63749
63589
63852
63749
63382
63373
63495
63467
63223
63176
63326
63091
62687
62621
62903
62959
62659
62640
62903
62922
62687
62649
62941
63006
62696
62678
62988
63053
62800
62800
63147
63260
63110
63232
63730
63749
63598
64886
68597
73567
76968
78387
74948
67225
62264
61484
62762
63636
63401
63589
64125
64294
64153
64153
64453
64519
64284
64322
64632
64698
64463
64463
64810
64904
64632
64651
65008
65073
64857
64904
65233
65308
65073
65111
65496
65600
65402
65478
65910
66079
65900
66032
66492
66680
66605
66774
67263
67563
67563
67836
68447
68822
68888
69208
69847
70194
70213
70448
70918
70974
70570
70288
70128
69518
68484
67704
67319
66727
65844
65308
65186
64914
64397
64209
64388
64303
63927
63871
64153
64162
63843
63814
64134
64181
63880
63843
64134
64153
63852
63833
64162
64190
63890
63843
64143
64200
63880
63843
64162
64181
63861
63843
64153
64153
63843
63805
64087
64096
63786
63749
64012
64021
63730
63664
63965
63965
63636
63608
63880
63908
63589
63551
63852
63861
63542
63533
63833
63843
63551
63467
63786
63814
63457
63476
63805
63796
63495
63448
63730
63749
63420
63420
63739
63749
63448
63429
63730
63739
63429
63410
63721
63758
63476
63504
63843
64002
63946
64002
64331
64435
64125
64059
64312
64153
63814
63814
63918
63927
63645
63570
63739
63514
63082
63053
63363
63382
63053
63044
63363
63345
63063
63082
63373
63382
63110
63119
63439
63476
63204
63213
63561
63608
63420
63570
64040
64153
63814
64378
66812
71322
75597
78265
77946
71622
64632
62180
62678
63711
63777
63814
64378
64585
64472
64585
64876
64933
64707
64735
65083
65120
64820
64857
65233
65290
65045
65092
65421
65496
65261
65299
65694
65731
65459
65562
65947
65994
65806
65919
66295
66408
66229
66342
66802
66971
66849
67056
67582
67798
67761
68080
68710
69029
69057
69386
70006
70345
70345
70645
71200
71322
70993
70805
70692
70128
69161
68409
67986
67310
66408
65919
65759
65384
64829
64585
64754
64688
64275
64218
64482
64444
64134
64106
64416
64425
64115
64125
64425
64444
64153
64172
64510
64472
64190
64209
64463
64472
64172
64153
64482
64425
64068
64125
64435
64435
64143
64106
64388
64359
64021
64021
64303
64247
63890
63899
64218
64162
63843
63861
64115
64134
63824
63767
64068
64040
63739
63739
64040
63993
63683
63730
64021
63974
63674
63702
63974
63955
63655
63636
63918
63918
63570
63561
63908
63927
63655
63645
63899
63861
63570
63636
63984
64059
63984
64143
64444
64453
64125
64106
64378
64218
63899
63880
63993
63984
63721
63655
63777
63504
63100
63119
63401
63363
63044
63044
63307
63326
63063
63072
63363
63363
63082
63091
63401
63382
63100
63185
63533
63551
63298
63467
63965
64106
63730
63730
65008
68503
73605
77410
79026
75540
67939
63260
62452
62941
63439
63683
63955
64134
64087
64303
64679
64669
64397
64444
64820
64839
64557
64641
65017
65017
64735
64829
65177
65214
64980
65055
65412
65440
65186
65252
65647
65703
65459
65590
65985
66069
65882
66041
66492
66577
66426
66680
67216
67357
67300
67657
68221
68522
68606
68982
69630
69912
69922
70279
70824
70974
70758
70683
70636
70091
69142
68381
67911
67206
66257
65694
65534
65149
64529
64303
64425
64303
63937
63852
64125
64078
63767
63824
64096
64049
63730
63749
64040
63974
63692
63758
64068
64002
63721
63767
64040
64002
63692
63749
64059
63955
63636
63721
63984
63927
63636
63617
63899
63871
63533
63542
63843
63758
63420
63429
63702
63636
63316
63373
63655
63570
63260
63307
63580
63514
63194
63251
63533
63457
63166
63194
63486
63439
63129
63166
63439
63382
63091
63119
63401
63345
63044
63100
63401
63335
63053
63110
63429
63439
63194
63448
63965
63899
63655
63777
64012
63946
63542
63448
63786
63580
63157
63270
63551
63448
62912
62743
62997
62912
62602
62649
62912
62856
62565
62621
62931
62884
62593
62659
62969
62912
62631
62725
63044
63035
62772
62912
63392
63486
63401
63467
63767
64707
67676
72957
77213
78819
75343
67704
62847
61719
62255
63232
63655
63692
63627
63899
64388
64378
64115
64256
64576
64557
64312
64388
64716
64726
64491
64613
64961
64951
64679
64810
65167
65149
64895
65036
65402
65402
65196
65346
65750
65797
65600
65778
66192
66276
66163
66398
66859
67009
66943
67272
67864
68071
68090
68503
69132
69414
69452
69828
70420
70598
70495
70636
70814
70467
69743
69170
68728
67930
66924
66342
66079
65487
64810
64623
64679
64416
64012
64012
64237
64106
63767
63824
64115
64031
63749
63824
64125
64040
63749
63843
64125
64096
63814
63880
64172
64087
63814
63918
64190
64096
63814
63890
64200
64106
63786
63833
64125
64040
63739
63796
64031
63946
63664
63702
63974
63861
63551
63589
63852
63767
63448
63542
63852
63739
63429
63504
63777
63702
63392
63457
63767
63664
63335
63410
63711
63627
63326
63420
63711
63608
63326
63420
63683
63589
63298
63382
63664
63570
63279
63363
63636
63589
63270
63345
63739
63721
63589
63918
64228
64153
63946
63946
64181
64012
63533
63683
63937
63645
63373
63486
63730
63420
62894
62903
63157
63082
62781
62865
63129
63053
62781
62847
63138
63035
62762
62865
63166
63110
62847
62959
63288
63223
63035
63298
63758
63843
63486
63824
65600
69179
73812
77391
78716
74112
66145
62189
62029
62997
63401
63504
64021
64134
63993
64247
64547
64453
64209
64369
64716
64632
64378
64519
64848
64820
64576
64726
65064
65017
64773
64923
65290
65261
64980
65139
65543
65534
65337
65524
65910
65910
65731
65985
66408
66473
66389
66661
67150
67281
67272
67686
68277
68494
68541
68973
69602
69837
69884
70269
70786
70842
70589
70561
70523
69950
69020
68400
67920
67094
66201
65769
65571
65073
64538
64444
64519
64294
63937
63993
64228
64087
63814
63880
64125
64031
63758
63880
64162
64059
63786
63899
64172
64068
63805
63918
64200
64096
63833
63955
64237
64096
63814
63946
64209
64078
63796
63890
64143
64021
63730
63814
64059
63899
63598
63711
63993
63843
63551
63664
63908
63777
63504
63598
63861
63758
63457
63570
63824
63692
63420
63504
63777
63683
63363
63467
63758
63645
63373
63486
63730
63617
63335
63429
63730
63598
63298
63410
63692
63598
63307
63410
63711
63598
63316
63486
63824
63758
63721
64012
64275
64237
63993
64059
64331
64059
63692
63843
63965
63711
63495
63645
63796
63410
62959
63053
63326
63166
62894
63025
63288
63176
62912
63025
63326
63241
62978
63110
63382
63279
63063
63213
63486
63382
63194
63486
63918
64012
63664
63918
65543
68926
73614
77335
78819
74779
67028
62790
62330
63044
63570
63777
64181
64303
64200
64519
64857
64726
64482
64660
64998
64876
64651
64857
65177
65102
64876
65064
65384
65299
65092
65271
65628
65562
65337
65543
65891
65825
65656
65891
66248
66229
66098
66333
66727
66784
66727
67047
67479
67592
67610
68024
68588
68766
68851
69320
69912
70119
70157
70598
71096
71115
70936
70974
70946
70345
69414
68822
68362
67526
66624
66201
66032
65506
64933
64876
65008
64716
64322
64472
64726
64510
64209
64331
64594
64453
64190
64369
64669
64510
64218
64378
64679
64538
64294
64453
64698
64547
64294
64435
64698
64547
64247
64369
64651
64463
64172
64312
64566
64378
64096
64247
64519
64350
64031
64162
64416
64237
63955
64096
64359
64172
63880
64040
64312
64134
63814
63946
64237
64087
63824
63984
64200
63993
63739
63908
64153
63993
63739
63861
64134
63974
63664
63833
64125
63955
63702
63852
64106
63955
63692
63824
64078
63965
63758
63965
64331
64425
64275
64416
64754
64594
64303
64406
64500
64341
64040
64012
64256
64115
63871
63843
63824
63561
63260
63429
63692
63504
63232
63392
63645
63476
63204
63382
63702
63561
63298
63467
63739
63589
63335
63542
63833
63721
63617
63937
64378
64218
63861
64754
68024
73163
77128
78989
76621
69471
63937
62527
63147
63843
63814
63918
64444
64519
64425
64754
65008
64886
64707
64895
65196
65027
64792
64998
65318
65243
65027
65252
65571
65421
65196
65459
65759
65647
65440
65675
66041
65966
65816
66088
66445
66351
66210
66567
66971
66962
66906
67263
67751
67836
67873
68343
68869
69020
69114
69621
70194
70326
70363
70795
71246
71153
70852
70730
70485
69687
68719
68155
67657
66784
65947
65665
65534
65036
64538
64500
64660
64397
64040
64162
64359
64190
63974
64162
64416
64237
63993
64162
64406
64237
63974
64172
64416
64237
64012
64181
64416
64265
64002
64172
64416
64200
63946
64115
64322
64115
63861
64040
64256
64021
63767
63946
64162
63946
63645
63824
64049
63833
63589
63758
64012
63824
63570
63739
63946
63758
63504
63674
63899
63683
63439
63617
63852
63683
63457
63617
63843
63645
63382
63589
63814
63608
63382
63561
63777
63598
63373
63627
63880
63805
63861
64096
64312
64247
63965
64125
64331
63955
63730
63861
63880
63711
63542
63692
63692
63260
62941
63110
63345
63147
62894
63100
63316
63110
62922
63129
63354
63138
62931
63166
63401
63232
63016
63223
63495
63354
63251
63608
64040
63927
63617
64359
66887
71491
75888
78632
77870
70936
64068
62020
62537
63410
63580
63805
64237
64237
64218
64538
64754
64604
64435
64669
64933
64763
64604
64895
65139
64980
64820
65055
65337
65196
65036
65290
65562
65393
65243
65515
65797
65694
65553
65835
66173
66098
66022
66370
66718
66661
66605
67009
67479
67526
67554
68052
68588
68681
68794
69339
69894
69997
70081
70561
70993
70899
70617
70626
70448
69659
68757
68212
67704
66830
66041
65778
65581
65027
64566
64594
64660
64350
64078
64228
64406
64181
63927
64115
64369
64181
63937
64153
64397
64200
63974
64190
64435
64247
64040
64256
64435
64209
64002
64228
64444
64228
64021
64247
64435
64209
63974
64153
64341
64143
63908
64068
64275
64031
63805
64021
64200
63993
63749
63937
64153
63927
63702
63899
64106
63871
63627
63824
64049
63814
63598
63814
64021
63805
63561
63758
63955
63730
63542
63767
63955
63739
63533
63721
63946
63721
63504
63730
63937
63711
63495
63730
63927
63683
63495
63786
64059
64040
64059
64265
64529
64397
64134
64303
64378
64012
63852
63946
64012
63843
63655
63824
63796
63335
63053
63260
63504
63241
63016
63260
63448
63232
63016
63260
63523
63288
63072
63326
63542
63345
63176
63439
63702
63580
63514
63899
64237
63974
64209
66361
70786
75277
78105
78284
72552
65158
62020
62321
63655
63918
63758
64209
64585
64547
64482
64735
64951
64792
64651
64895
65139
64942
64763
65045
65280
65102
64961
65243
65487
65308
65149
65459
65712
65534
65393
65675
65975
65853
65731
66060
66370
66257
66192
66567
66924
66887
66896
67338
67789
67836
67892
68418
68935
69048
69189
69743
70251
70363
70448
70880
71228
70993
70636
70485
70138
69255
68306
67817
67338
66492
65816
65609
65402
64914
64529
64613
64688
64369
64143
64331
64491
64256
64031
64265
64463
64228
64068
64275
64444
64218
64059
64303
64463
64228
64049
64294
64472
64228
64049
64265
64453
64209
64002
64256
64406
64125
63955
64209
64388
64134
63908
64143
64322
64059
63861
64068
64256
64021
63786
64012
64190
63908
63739
63984
64115
63852
63655
63871
64059
63814
63627
63861
64021
63777
63580
63786
63955
63711
63533
63767
63927
63683
63495
63749
63927
63664
63495
63739
63918
63674
63504
63749
63927
63758
63645
64049
64444
64209
64068
64369
64491
64237
63993
64106
64265
63890
63551
63833
64059
63767
63335
63335
63467
63213
63025
63260
63420
63204
63006
63232
63448
63204
63025
63260
63448
63241
63063
63335
63561
63316
63194
63514
63814
63758
63777
63965
64228
65092
68174
73436
77401
78650
75127
67977
63363
62114
62678
63767
64059
63908
63984
64397
64782
64632
64453
64735
64923
64716
64594
64904
65139
64923
64782
65073
65280
65073
64942
65205
65449
65271
65177
65487
65684
65543
65459
65759
66004
65882
65853
66201
66492
66370
66361
66802
67141
67094
67150
67648
68118
68165
68296
68879
69396
69489
69640
70204
70636
70636
70645
70946
71021
70448
69790
69414
68869
67883
66990
66605
66248
65524
64961
64904
64848
64453
64153
64303
64425
64143
63918
64115
64303
64068
63899
64153
64322
64087
63927
64172
64359
64106
63937
64190
64350
64096
63918
64172
64341
64059
63880
64134
64275
64012
63852
64096
64209
63899
63739
63965
64096
63814
63608
63852
63946
63674
63561
63786
63927
63674
63486
63711
63880
63580
63363
63627
63796
63542
63373
63608
63749
63486
63298
63561
63730
63420
63251
63523
63655
63382
63213
63467
63627
63429
63326
63674
64096
63890
63711
64087
64190
63899
63767
63843
63937
63655
63279
63561
63749
63429
63147
63053
63110
62903
62678
62931
63072
62762
62640
62894
63035
62781
62640
62941
63100
62828
62668
62912
63082
62847
62753
63082
63345
63232
63279
63570
63608
63984
66586
72036
76555
78340
76226
69555
63946
61870
61954
63100
63570
63251
63307
63871
64190
64078
63946
64181
64406
64200
64106
64453
64641
64378
64265
64547
64763
64557
64444
64782
64998
64763
64669
65017
65205
65008
64942
65308
65571
65365
65355
65741
65957
65835
65844
66295
66643
66577
66652
67178
67582
67610
67817
68390
68869
68945
69076
69659
70119
70100
70157
70485
70495
69894
69236
68832
68193
67169
66323
65919
65524
64801
64284
64247
64172
63767
63495
63664
63749
63420
63270
63523
63636
63392
63232
63429
63598
63382
63213
63457
63580
63335
63213
63457
63608
63363
63251
63523
63636
63354
63241
63523
63645
63345
63176
63439
63551
63270
63129
63363
63476
63194
63025
63260
63382
63091
62931
63185
63307
63016
62856
63138
63279
62969
62809
63063
63185
62931
62790
63035
63185
62922
62772
63091
63213
62931
62875
63166
63486
63467
63298
63645
63871
63504
63373
63551
63551
63326
63025
63138
63335
63091
62884
62865
62753
62452
62321
62602
62734
62433
62311
62593
62706
62452
62339
62612
62762
62508
62415
62687
62828
62621
62555
62912
63176
63072
63176
63420
63570
64284
67357
72844
77006
78481
75334
67967
62828
61381
61973
63185
63486
63298
63439
63880
64190
64049
63918
64237
64453
64218
64134
64435
64594
64397
64322
64623
64801
64594
64529
64867
65064
64857
64820
65167
65346
65158
65130
65487
65675
65496
65496
65919
66192
66041
66098
66558
66868
66821
66962
67507
67883
67920
68155
68747
69198
69273
69489
70119
70523
70476
70495
70767
70692
70044
69367
68945
68287
67272
66502
66192
65797
65092
64623
64669
64594
64172
63937
64153
64209
63890
63767
64031
64162
63890
63749
64040
64172
63880
63786
64087
64228
63955
63833
64143
64256
63955
63880
64172
64265
63993
63899
64200
64312
64012
63880
64153
64247
63946
63843
64125
64200
63899
63777
64049
64134
63805
63692
63965
64049
63758
63636
63918
64021
63739
63608
63880
63993
63683
63570
63861
63937
63655
63561
63833
63955
63645
63533
63824
63984
63786
63767
64331
64576
64218
64218
64529
64510
64209
63984
64172
64331
63871
63664
64021
64115
63721
63354
63457
63533
63213
63110
63363
63467
63204
63072
63401
63514
63241
63176
63439
63561
63288
63204
63542
63664
63410
63439
63871
64125
64059
63908
64444
66069
69583
74450
78152
79101
73981
66295
62772
62508
63260
63796
64143
64463
64359
64453
64895
65027
64745
64707
65083
65205
64923
64895
65224
65365
65139
65064
65402
65534
65318
65308
65609
65778
65571
65506
65872
66051
65816
65825
66201
66389
66239
66257
66690
66943
66821
66906
67404
67742
67695
67892
68512
68916
68963
69198
69828
70298
70335
70542
71096
71369
71181
71002
71012
70626
69677
68851
68390
67770
66840
66163
65994
65712
65102
64792
64904
64857
64500
64359
64604
64679
64341
64256
64566
64641
64359
64247
64519
64641
64350
64247
64547
64651
64406
64322
64604
64698
64388
64312
64632
64735
64453
64369
64632
64716
64416
64322
64613
64660
64341
64228
64491
64585
64294
64172
64425
64491
64162
64068
64369
64444
64125
64040
64331
64378
64068
63974
64265
64341
64021
63946
64265
64312
63955
63908
64190
64237
63984
63890
64181
64294
64031
64012
64350
64510
64453
64491
64745
64914
64660
64519
64763
64698
64341
64284
64378
64406
64162
64068
64247
64068
63617
63504
63814
63899
63570
63486
63777
63852
63561
63476
63786
63890
63589
63551
63852
63908
63655
63627
63955
64087
63918
63965
64453
64641
64294
64801
67300
71998
76377
78923
78171
71622
64857
62546
63100
64190
64247
64209
64735
64970
64839
64914
65196
65299
65064
64998
65346
65478
65196
65177
65553
65656
65402
65384
65722
65863
65637
65618
65975
66126
65919
65891
66239
66417
66210
66239
66633
66812
66671
66746
67178
67432
67328
67460
67977
68315
68315
68559
69208
69612
69640
69912
70551
70983
70983
71171
71641
71697
71237
70786
70504
69884
68860
68033
67620
67075
66267
65778
65731
65534
65017
64773
64970
64980
64623
64519
64801
64867
64566
64491
64792
64857
64585
64529
64839
64904
64613
64557
64839
64895
64604
64529
64839
64933
64613
64557
64857
64895
64604
64519
64801
64857
64538
64463
64754
64810
64472
64397
64688
64754
64444
64322
64660
64726
64350
64275
64557
64613
64294
64181
64472
64538
64218
64125
64406
64463
64172
64096
64406
64491
64153
64087
64378
64416
64115
64040
64341
64359
64031
64012
64303
64369
64049
63955
64303
64369
64106
64040
64294
64369
64134
64096
64500
64810
64585
64519
64895
64942
64594
64491
64669
64716
64322
64087
64397
64444
64125
63927
63984
63918
63570
63523
63814
63843
63542
63476
63786
63852
63561
63533
63843
63899
63598
63570
63852
63918
63636
63598
63965
64031
63833
63965
64435
64632
64247
64500
66614
71153
75869
78679
78566
72731
65534
62668
62903
63805
64059
64002
64425
64773
64651
64763
65092
65111
64876
64839
65196
65337
65073
65083
65421
65496
65252
65233
65581
65665
65440
65449
65816
65919
65665
65694
66051
66192
66022
66041
66436
66614
66436
66577
67009
67169
67084
67272
67789
68090
68043
68259
68879
69273
69349
69715
70345
70683
70692
70908
71425
71528
71087
70739
70523
69884
68851
68024
67620
66990
66107
65590
65468
65243
64745
64500
64716
64679
64284
64200
64463
64482
64190
64125
64425
64444
64106
64106
64444
64482
64190
64143
64444
64510
64200
64143
64463
64500
64172
64134
64463
64510
64181
64106
64397
64416
64078
64031
64331
64312
63993
63965
64190
64172
63861
63843
64172
64162
63796
63702
64021
64078
63711
63636
63908
63955
63645
63589
63918
63937
63580
63514
63824
63861
63523
63448
63730
63786
63476
63448
63749
63739
63401
63363
63674
63711
63467
63448
63852
64162
63908
63871
64265
64228
63890
63843
64002
64012
63589
63382
63702
63758
63410
63147
63176
63091
62762
62743
63025
63016
62715
62668
62988
63044
62753
62725
63025
63044
62734
62706
63006
63044
62781
62781
63119
63176
62941
63100
63589
63786
63382
63429
65083
69104
74169
77664
78801
74291
66342
62208
61926
62734
63194
63241
63598
63880
63767
63937
64331
64369
64134
64134
64463
64519
64256
64312
64660
64698
64463
64491
64829
64904
64660
64716
65055
65111
64904
64980
65384
65431
65196
65337
65731
65835
65656
65806
66267
66436
66304
66483
67028
67281
67263
67554
68183
68531
68559
68926
69574
69903
69940
70241
70749
70814
70429
70166
69950
69264
68240
67469
67009
66351
65496
65008
64923
64613
64068
63918
64087
64012
63655
63598
63871
63833
63533
63542
63824
63814
63533
63551
63861
63843
63533
63589
63899
63899
63636
63655
63965
63974
63655
63664
63993
63984
63664
63692
64012
63955
63627
63655
63927
63871
63533
63504
63814
63796
63457
63439
63702
63664
63382
63392
63636
63598
63298
63298
63589
63551
63232
63232
63495
63504
63232
63204
63486
63486
63157
63176
63495
63448
63147
63166
63448
63429
63138
63157
63439
63420
63091
63100
63420
63401
63091
63119
63401
63363
63072
63082
63401
63373
63110
63204
63589
63796
63645
63636
64021
64040
63645
63617
63739
63617
63410
63298
63486
63486
63176
63138
63204
62950
62602
62621
62903
62884
62565
62565
62875
62865
62574
62602
62903
62903
62602
62631
62959
62950
62659
62696
63053
63110
62875
63016
63504
63692
63335
63692
65534
69198
73802
77363
78688
73821
65581
61635
61776
62950
63298
63401
63927
64049
63918
64059
64350
64341
64078
64153
64491
64482
64265
64322
64641
64679
64397
64482
64857
64857
64613
64688
65045
65083
64810
64914
65299
65337
65130
65252
65647
65712
65562
65759
66192
66333
66210
66436
66990
67197
67178
67507
68108
68437
68494
68869
69565
69884
69884
70204
70702
70786
70467
70241
70110
69480
68437
67686
67216
66530
65618
65120
65017
64632
64059
63908
64078
63965
63598
63570
63833
63777
63448
63467
63786
63749
63420
63476
63796
63721
63401
63448
63758
63739
63457
63457
63767
63767
63448
63476
63796
63739
63448
63504
63777
63749
63439
63429
63721
63692
63363
63354
63645
63589
63279
63288
63561
63533
63194
63213
63533
63457
63138
63166
63448
63420
63119
63119
63429
63410
63091
63110
63373
63316
63025
63072
63354
63316
62997
63006
63335
63298
62959
63006
63316
63279
62950
62959
63298
63260
62941
62978
63251
63213
62922
62941
63251
63213
62903
62922
63223
63204
62875
62903
63213
63185
62894
62894
63194
63157
62837
62875
63157
63119
62828
62884
63232
63251
62988
63204
63739
63692
63410
63533
63777
63711
63298
63194
63542
63382
62941
63006
63307
63213
62668
62490
62743
62687
62377
62396
62706
62668
62368
62415
62725
62687
62396
62452
62781
62753
62471
62537
62847
62800
62518
62602
62959
62997
62837
63016
63523
63448
63345
64857
68785
73614
76809
77842
73718
66022
61663
61325
62631
63326
63082
63307
63814
63927
63767
63824
64153
64134
63861
63955
64303
64303
64021
64096
64453
64472
64218
64294
64632
64623
64397
64519
64886
64886
64641
64773
65149
65196
64970
65092
65524
65628
65421
65618
66098
66210
66135
66380
66915
67169
67150
67488
68146
68465
68503
68907
69555
69837
69847
70128
70589
70551
70091
69800
69565
68860
67808
67094
66708
66022
65167
64782
64716
64331
63805
63674
63833
63721
63363
63373
63655
63570
63260
63316
63598
63561
63298
63326
63598
63561
63260
63326
63655
63617
63298
63335
63627
63589
63298
63316
63598
63570
63241
63260
63570
63533
63223
63260
63542
63467
63157
63176
63410
63307
62997
63035
63326
63232
62894
62950
63251
63176
62847
62922
63185
63119
62809
62828
63129
63063
62725
62790
63110
63025
62734
62790
63025
62941
62649
62725
63063
62988
62631
62687
62988
62950
62668
62687
62969
62903
62593
62659
62959
62912
62612
62649
62922
62837
62527
62612
62941
62875
62527
62602
62931
62865
62546
62584
62865
62809
62508
62565
62912
62809
62480
62574
62865
62819
62518
62574
62847
62772
62471
62499
62800
62734
62452
62537
62828
62800
62471
62490
62809
62734
62405
62508
62819
62725
62405
62471
62819
62743
62405
62471
62809
62753
62433
62499
62790
62696
62396
62461
62743
62687
62396
62452
62790
62725
62405
62490
62762
62668
62377
62424
62715
62649
62339
62433
62725
62640
62349
62405
62725
62696
62405
62433
62696
62621
62339
62424
62715
62640
62339
62377
62706
62706
62424
62621
63100
63063
62819
62922
63204
63213
62856
62800
63082
62847
62433
62555
62903
62753
62170
62029
62321
62245
61907
61992
62255
62142
61870
61926
62208
62161
61870
61917
62208
62170
61935
62010
62302
62321
62067
62208
62659
62800
62490
62368
63392
66370
71331
75475
77579
75493
68193
62584
61390
61606
62057
62415
62659
62828
62828
63100
63542
63448
63157
63279
63608
63627
63420
63504
63805
63767
63533
63655
64021
64012
63749
63861
64237
64228
63993
64115
64453
64472
64247
64416
64820
64792
64594
64839
65280
65318
65158
65346
65835
66013
65938
66276
66802
66990
67047
67432
68061
68334
68343
68691
69226
69405
69283
69367
69574
69255
68484
67986
67573
66755
65759
65130
64820
64284
63608
63363
63382
63147
62715
62649
62894
62790
62461
62518
62809
62725
62424
62480
62790
62725
62433
62480
62762
62715
62424
62490
62790
62743
62471
62480
62762
62696
62386
62490
62753
62649
62349
62358
62668
62612
62264
62321
62593
62490
62198
62264
62518
62415
62114
62151
62415
62368
62067
62123
62424
62339
62039
62095
62339
62274
61982
62029
62292
62236
61954
62001
62321
62264
61945
61992
62283
62217
61917
61973
62227
62180
61926
61982
62292
62198
61888
61945
62245
62227
61917
62010
62292
62180
61898
61954
62274
62236
61945
61992
62274
62227
61926
61973
62274
62217
61954
62020
62321
62274
61973
62114
62433
62443
62433
62593
62875
62894
62584
62584
62819
62621
62330
62330
62461
62396
62151
62180
62264
61945
61578
61644
61917
61841
61578
61653
61982
61935
61597
61653
61992
61935
61663
61766
62048
62020
61766
61870
62264
62330
62198
62443
62649
62772
63880
67704
73097
76442
77222
73097
65694
61400
60564
61559
62593
62546
62443
62790
63260
63363
63119
63204
63561
63542
63316
63420
63730
63721
63486
63617
63955
63918
63702
63805
64134
64153
63918
64040
64406
64397
64172
64350
64707
64698
64519
64707
65139
65205
65027
65280
65741
65853
65806
66126
66690
66868
66887
67328
67930
68183
68259
68653
69283
69527
69471
69771
70157
70006
69480
69095
68785
68024
66971
66314
65910
65214
64425
64068
64031
63730
63241
63176
63345
63185
62865
62912
63194
63082
62772
62847
63100
63063
62781
62809
63119
63063
62762
62894
63204
63110
62865
62941
63232
63185
62865
62931
63223
63147
62875
62950
63232
63147
62837
62903
63213
63091
62781
62875
63119
63016
62706
62762
63044
62959
62640
62696
62969
62865
62584
62659
62950
62847
62527
62593
62865
62790
62508
62574
62837
62734
62461
62527
62800
62734
62461
62518
62781
62715
62433
62480
62772
62696
62405
62508
62800
62715
62424
62499
62781
62725
62433
62499
62819
62743
62461
62602
62941
62922
62875
63129
63382
63420
63147
63119
63392
63166
62781
62912
63053
62865
62631
62696
62912
62593
62095
62151
62424
62339
62057
62114
62415
62377
62067
62142
62490
62405
62114
62245
62537
62480
62198
62302
62659
62678
62518
62753
63241
63138
63082
64547
68343
73191
76433
77711
73896
66116
61513
61062
62349
63025
62819
63100
63627
63730
63617
63730
64049
64012
63749
63880
64218
64200
63927
64049
64406
64359
64115
64247
64613
64576
64341
64482
64839
64829
64604
64773
65149
65158
64961
65130
65524
65562
65402
65647
66088
66173
66098
66426
66943
67103
67131
67545
68174
68437
68484
68954
69612
69837
69856
70194
70664
70655
70269
70053
69875
69161
68155
67479
67018
66286
65393
64961
64886
64472
63908
63814
63965
63777
63410
63476
63730
63608
63307
63373
63655
63580
63279
63354
63674
63580
63288
63392
63664
63580
63326
63420
63692
63598
63316
63410
63702
63627
63335
63410
63702
63598
63307
63363
63645
63561
63260
63335
63598
63486
63194
63251
63495
63410
63110
63185
63476
63345
63035
63110
63382
63260
62978
63072
63326
63232
62922
62988
63288
63213
62912
62978
63251
63147
62856
62941
63223
63138
62837
62931
63213
63110
62828
62931
63232
63129
62837
62931
63204
63138
62865
62950
63241
63157
62931
63072
63514
63664
63401
63514
63908
63749
63429
63476
63608
63514
63138
63053
63363
63288
62988
62903
62903
62725
62396
62480
62800
62696
62386
62499
62809
62706
62424
62537
62837
62743
62452
62574
62903
62856
62574
62696
63072
63110
62959
63241
63523
63476
64218
67394
72656
76452
77805
75071
68080
62856
61400
62142
63279
63345
63147
63523
64021
64078
63871
63984
64294
64218
64021
64162
64482
64444
64200
64350
64688
64632
64378
64529
64867
64839
64632
64754
65120
65073
64857
65064
65393
65384
65233
65440
65863
65891
65759
66013
66436
66520
66445
66793
67338
67479
67526
67967
68569
68822
68879
69311
69931
70157
70138
70420
70814
70655
70072
69715
69405
68578
67507
66877
66511
65825
64980
64641
64623
64275
63814
63814
63993
63796
63495
63533
63767
63683
63382
63457
63749
63636
63354
63495
63796
63674
63392
63523
63824
63711
63420
63514
63796
63683
63439
63551
63814
63702
63373
63467
63805
63683
63354
63429
63674
63542
63223
63354
63645
63504
63204
63279
63486
63345
63035
63147
63439
63298
62997
63110
63373
63223
62931
63053
63298
63147
62884
62950
63204
63138
62856
62922
63213
63129
62837
62969
63241
63091
62781
62875
63138
62988
62706
62800
63100
63053
62819
63082
63580
63523
63241
63420
63664
63533
63223
63185
63495
63251
62706
62912
63270
63063
62574
62415
62574
62461
62245
62349
62565
62443
62151
62227
62499
62424
62170
62274
62546
62433
62189
62311
62593
62508
62283
62443
62800
62800
62649
62969
63194
63072
63899
67883
73614
76978
77570
73708
66821
62480
61221
61888
62959
62941
62631
63072
63608
63645
63504
63617
63918
63871
63589
63739
64096
64021
63786
63946
64247
64181
63955
64153
64463
64416
64209
64350
64716
64688
64453
64660
65017
64980
64848
65064
65431
65478
65355
65628
66088
66163
66079
66426
66990
67159
67178
67629
68249
68484
68569
69038
69659
69818
69790
70100
70382
70110
69518
69076
68625
67817
66793
66163
65778
65064
64312
64068
64068
63730
63279
63270
63448
63288
62969
63044
63288
63147
62894
63025
63298
63176
62922
63044
63326
63213
62950
63082
63363
63260
62988
63100
63354
63251
62988
63100
63382
63251
62941
63053
63298
63138
62865
62997
63232
63091
62809
62884
63129
62997
62696
62781
63044
62894
62621
62743
62997
62894
62612
62706
62988
62856
62584
62696
62959
62819
62537
62668
62950
62809
62518
62649
62912
62790
62518
62631
62894
62762
62527
62640
62884
62762
62480
62593
62903
62800
62565
62753
63063
63147
63072
63185
63533
63486
63129
63194
63335
63082
62875
62894
62988
62922
62706
62734
62743
62424
62095
62208
62518
62396
62104
62255
62527
62377
62104
62255
62537
62415
62161
62283
62574
62499
62236
62396
62725
62678
62555
62865
63288
63129
63176
64904
69085
73887
76978
77814
73088
65308
61296
61212
62640
63147
62903
63298
63739
63777
63674
63796
64096
64031
63814
63974
64312
64265
64002
64190
64519
64435
64228
64369
64679
64632
64435
64604
64942
64876
64632
64848
65224
65167
64989
65224
65590
65590
65468
65750
66154
66229
66163
66473
67028
67178
67178
67639
68240
68484
68550
69010
69659
69875
69884
70232
70655
70570
70147
69931
69715
68926
67892
67272
66840
66069
65243
64895
64810
64425
63908
63852
64021
63786
63467
63561
63805
63674
63392
63495
63758
63645
63392
63542
63833
63692
63429
63570
63861
63749
63467
63598
63880
63758
63486
63598
63880
63777
63514
63598
63843
63758
63457
63542
63824
63692
63401
63495
63767
63627
63335
63429
63692
63580
63260
63354
63617
63476
63194
63307
63570
63429
63138
63270
63551
63401
63119
63251
63504
63382
63091
63194
63495
63382
63082
63204
63495
63363
63100
63232
63495
63401
63129
63223
63504
63392
63119
63251
63561
63514
63298
63645
64125
63984
63767
63955
64181
64059
63664
63655
63993
63721
63298
63514
63777
63589
63110
62997
63223
63110
62828
62941
63241
63110
62828
62978
63251
63176
62912
63016
63307
63213
62959
63100
63401
63335
63110
63363
63796
63871
63730
63758
64472
66192
70175
75136
78387
78265
72233
65158
62461
62377
63129
63749
64096
64209
64134
64435
64857
64763
64510
64707
65036
64942
64679
64867
65214
65130
64923
65092
65393
65318
65120
65318
65656
65609
65365
65553
65938
65891
65694
65891
66267
66257
66088
66342
66755
66784
66671
66981
67469
67582
67545
67939
68569
68747
68757
69255
69875
70081
70175
70608
71171
71312
71143
71228
71322
70795
69969
69424
