# aauwss ecg epoch, one sample per line
# source AAUWSS (Aalborg University Wearable Sleep Study) v1.1, Zenodo 10.5281/zenodo.16919071
# licence CC-BY-4.0 - Djanian S, Nielsen T D, Nielsen S H, Bruun A (2025)
# subject 06
# fs_hz 200.0
# samples 6000
# scale 0.1  (value = count * scale, arbitrary published units, NOT mV)
# source_row 389 of 778
# stage_label REM
# epoch 390.0
101425
101363
101425
101487
101425
101384
101363
101404
101425
101363
101404
101425
101404
101363
101363
101446
101404
101342
101404
101404
101384
101425
101508
101591
101591
101570
101570
101591
101674
101694
101736
101839
101839
101964
102109
102212
102357
102398
102336
102378
102481
102523
102606
102730
102751
102792
102813
102771
102813
102833
102709
102585
102419
102357
102254
102109
102046
101922
101860
101881
101819
101756
101756
101798
101736
101632
101694
101694
101674
101674
101570
101549
101570
101570
101653
101653
101591
101591
101632
101694
101715
101674
101694
101777
101798
101881
101901
101881
101839
101756
101819
101901
101860
101839
101798
101839
101943
101922
101839
101798
101777
101756
101736
101777
101839
101839
101819
101715
101611
101736
101777
101860
102026
102109
102109
102088
102171
102336
102606
102854
103144
103310
103165
103206
103351
103310
103041
102564
102026
101819
101694
101529
101487
101446
101384
101404
101404
101322
101301
101322
101322
101301
101301
101384
101384
101384
101384
101342
101363
101404
101425
101467
101446
101425
101446
101487
101529
101611
101508
100887
100493
100804
101653
103890
107369
110641
113417
113789
110476
107286
105671
104387
103434
102792
102585
102274
102005
101922
101798
101715
101632
101611
101632
101611
101591
101591
101591
101591
101570
101570
101570
101570
101570
101591
101570
101591
101570
101529
101570
101570
101549
101549
101549
101529
101549
101570
101529
101570
101611
101591
101653
101715
101756
101819
101881
101922
102005
102046
102109
102191
102274
102316
102378
102419
102502
102564
102606
102709
102771
102792
102854
102854
102854
102751
102647
102585
102481
102398
102274
102150
102088
102005
101964
101943
101881
101860
101798
101777
101777
101736
101715
101694
101674
101674
101694
101715
101674
101674
101694
101694
101715
101756
101756
101819
101819
101819
101881
101922
101943
101984
101984
102046
102046
102026
102046
102026
102046
102067
102067
102088
102067
102067
102046
102067
102067
102046
102067
102067
102046
102088
102067
102109
102150
102233
102336
102357
102336
102357
102481
102688
102937
103227
103517
103496
103475
103600
103600
103372
102958
102523
102212
102046
101901
101798
101736
101674
101632
101611
101570
101508
101467
101467
101487
101508
101446
101425
101425
101467
101446
101446
101467
101487
101529
101487
101487
101549
101570
101632
101446
100804
100721
101322
102564
105236
108860
112236
114535
114100
110848
108156
106665
105174
104242
103641
103041
102461
102046
101881
101756
101715
101611
101549
101529
101529
101487
101446
101467
101529
101508
101487
101487
101487
101467
101467
101487
101508
101529
101508
101487
101508
101508
101487
101529
101529
101549
101549
101549
101549
101570
101570
101632
101694
101736
101756
101839
101901
101984
102088
102171
102274
102378
102419
102481
102606
102709
102792
102875
102958
103061
103123
103144
103123
103041
102978
102875
102771
102668
102523
102378
102274
102150
102088
102005
101964
101943
101901
101860
101839
101819
101819
101860
101839
101819
101819
101798
101798
101736
101715
101736
101756
101694
101694
101674
101653
101653
101632
101674
101715
101694
101694
101694
101694
101694
101736
101736
101694
101715
101715
101715
101736
101715
101715
101736
101736
101715
101715
101715
101715
101694
101694
101694
101694
101715
101694
101694
101777
101860
101984
102109
102088
102109
102150
102274
102523
102771
103082
103289
103186
103248
103434
103330
103061
102626
102150
101881
101694
101570
101467
101384
101363
101322
101259
101259
101259
101218
101218
101218
101218
101218
101218
101239
101259
101280
101259
101280
101301
101322
101280
101301
101363
101404
101404
100949
100452
100762
101611
103517
106913
110559
113541
114680
112381
108902
106996
105464
104138
103475
102978
102481
102005
101756
101632
101529
101446
101384
101363
101342
101322
101301
101301
101322
101301
101280
101322
101301
101239
101280
101280
101280
101259
101259
101280
101280
101280
101239
101259
101301
101280
101280
101280
101301
101322
101342
101363
101446
101508
101529
101591
101653
101736
101798
101881
101984
102129
102212
102274
102378
102481
102543
102626
102688
102792
102854
102896
102916
102896
102854
102751
102668
102564
102440
102336
102233
102150
102067
101984
101922
101901
101860
101839
101839
101798
101736
101736
101777
101736
101715
101736
101694
101694
101715
101653
101632
101632
101611
101653
101694
101715
101715
101694
101694
101736
101715
101715
101736
101736
101756
101756
101777
101798
101777
101819
101798
101777
101777
101756
101715
101715
101756
101756
101736
101736
101715
101674
101694
101715
101674
101653
101653
101632
101611
101653
101653
101653
101736
101798
101922
102046
102005
102005
102088
102212
102461
102751
103082
103268
103206
103227
103351
103289
102958
102461
102026
101736
101529
101404
101342
101280
101239
101197
101156
101156
101114
101094
101114
101114
101094
101114
101114
101094
101073
101073
101114
101177
101177
101114
101135
101197
101218
101239
101218
100721
100265
100597
101446
103351
106768
110455
113479
114639
112257
108777
106893
105277
103828
103165
102792
102295
101860
101632
101508
101404
101301
101239
101177
101177
101218
101197
101114
101094
101114
101135
101156
101177
101177
101156
101114
101135
101177
101114
101114
101114
101073
101114
101114
101135
101135
101135
101156
101259
101177
101177
101322
101363
101425
101446
101467
101487
101529
101653
101756
101839
101881
101964
102046
102129
102171
102233
102357
102440
102564
102626
102626
102668
102647
102564
102481
102419
102316
102212
102129
102046
101860
101736
101674
101674
101674
101632
101591
101529
101508
101549
101487
101467
101487
101487
101508
101529
101508
101467
101425
101487
101529
101487
101487
101508
101529
101549
101529
101487
101446
101467
101549
101570
101632
101632
101591
101591
101611
101611
101591
101570
101591
101591
101611
101570
101570
101570
101591
101611
101570
101529
101549
101591
101591
101591
101549
101508
101508
101508
101508
101570
101591
101694
101881
101964
101922
101860
101922
102129
102336
102626
103020
103165
103103
103144
103227
103123
102792
102316
101860
101591
101467
101404
101259
101177
101114
101032
101094
101114
100969
100907
100949
101032
101032
100969
100969
100969
100969
101011
100990
100949
100969
101011
100990
100949
100949
100949
101032
101135
100804
100100
99996
100576
101901
104905
108612
111780
114079
112816
108860
106251
104739
103496
102647
102212
101964
101570
101384
101322
101218
101114
101114
101135
101114
101073
101052
101114
101135
101094
101114
101156
101094
101052
101114
101156
101114
101135
101094
101094
101114
101052
101073
101177
101156
101135
101135
101197
101259
101177
101218
101218
101218
101322
101363
101425
101467
101467
101529
101632
101715
101777
101881
102005
102088
102150
102109
102046
102150
102233
102274
102336
102398
102461
102378
102295
102274
102171
102088
102026
101901
101736
101611
101467
101425
101467
101404
101404
101342
101239
101197
101177
101156
101197
101218
101239
101239
101135
101135
101197
101239
101301
101322
101363
101342
101342
101363
101363
101446
101467
101467
101508
101529
101487
101487
101508
101549
101549
101508
101570
101570
101529
101508
101529
101487
101467
101467
101425
101363
101363
101404
101384
101342
101384
101384
101363
101342
101239
101259
101322
101301
101404
101570
101653
101674
101591
101570
101694
101943
102254
102481
102730
102875
102792
102854
103103
103082
102709
102088
101715
101508
101322
101218
101114
101094
101032
101032
100969
100887
100928
100907
100928
100887
100845
100845
100783
100845
100907
100969
100990
100845
100866
100928
100969
101011
100969
101011
101073
101094
100990
100472
99996
100203
100990
102999
106437
109854
112775
113665
110724
107266
105422
104076
103041
102357
102109
101819
101508
101404
101239
101156
101177
101177
101135
101135
101094
101052
101052
101052
101052
101032
100990
100990
100990
101011
100990
100990
101052
101011
100949
100949
100949
100969
100969
100949
100969
100990
100990
101011
101011
101011
101073
101114
101135
101177
101218
101280
101363
101446
101508
101570
101674
101736
101777
101860
101901
101943
102046
102109
102150
102212
102233
102212
102233
102171
102088
102005
101881
101798
101694
101591
101508
101384
101322
101301
101259
101218
101177
101156
101135
101135
101073
101073
101073
101032
101032
101032
101011
100969
100949
100990
100990
101011
101052
101073
101073
101094
101114
101177
101218
101239
101239
101218
101259
101280
101301
101301
101342
101322
101301
101301
101301
101322
101301
101280
101301
101280
101239
101218
101197
101197
101197
101135
101135
101197
101239
101342
101467
101467
101467
101487
101549
101756
102005
102295
102606
102626
102606
102792
102813
102606
102212
101756
101425
101218
101052
100949
100907
100824
100783
100762
100721
100721
100721
100700
100742
100721
100680
100680
100700
100721
100721
100742
100762
100742
100762
100783
100762
100783
100804
100845
100700
100100
99892
100452
101715
104242
107845
111346
113831
113644
110476
107618
106044
104490
103517
102937
102378
101860
101404
101218
101114
101011
100949
100907
100887
100866
100845
100824
100804
100783
100783
100804
100824
100824
100804
100804
100804
100824
100804
100804
100804
100783
100783
100783
100804
100845
100824
100824
100845
100845
100866
100866
100907
100928
100969
101032
101094
101156
101218
101322
101425
101508
101611
101715
101819
101922
102005
102129
102212
102274
102378
102440
102440
102440
102398
102316
102212
102109
101964
101839
101736
101591
101467
101384
101322
101259
101197
101156
101156
101156
101156
101156
101135
101094
101094
101073
101073
101073
101052
101052
101032
101052
101073
101052
101052
101052
101011
101052
101052
101032
101052
101073
101073
101073
101094
101114
101114
101156
101114
101094
101135
101114
101114
101135
101135
101135
101135
101156
101156
101135
101135
101156
101177
101239
101301
101446
101570
101529
101508
101549
101632
101839
102129
102461
102709
102688
102688
102833
102813
102543
102129
101736
101425
101197
101073
100969
100887
100866
100824
100783
100783
100721
100721
100721
100680
100680
100680
100680
100700
100700
100659
100721
100783
100721
100721
100742
100783
100804
100845
100845
100286
99934
100390
101404
103724
107328
110952
113686
114079
111180
107970
106271
104677
103434
102875
102398
101901
101487
101301
101197
101114
101011
100949
100907
100887
100866
100845
100845
100845
100845
100845
100845
100866
100887
100866
100887
100887
100845
100824
100824
100845
100824
100783
100783
100783
100845
100824
100804
100866
100887
100907
100928
101011
101073
101114
101177
101280
101363
101425
101508
101632
101715
101839
101922
101984
102129
102171
102233
102316
102378
102461
102502
102502
102461
102357
102254
102171
102067
101901
101736
101674
101591
101487
101384
101301
101259
101259
101218
101197
101197
101177
101156
101135
101135
101135
101156
101177
101156
101135
101114
101135
101135
101135
101156
101156
101156
101177
101156
101177
101218
101197
101197
101218
101218
101239
101259
101239
101218
101259
101301
101280
101280
101280
101259
101280
101259
101239
101259
101218
101218
101239
101239
101259
101218
101259
101322
101404
101549
101591
101570
101632
101694
101839
102109
102419
102730
102792
102730
102813
102875
102730
102336
101839
101446
101156
100969
100866
100762
100721
100700
100659
100555
100514
100514
100555
100555
100514
100535
100555
100535
100576
100597
100555
100576
100576
100555
100555
100555
100555
100555
100659
100431
99789
99789
100452
101777
104739
108570
111863
114017
112899
109254
106727
105029
103538
102709
102233
101798
101259
100928
100804
100762
100762
100700
100597
100514
100535
100514
100514
100514
100472
100514
100472
100472
100472
100472
100472
100452
100493
100493
100493
100472
100410
100327
100369
100452
100431
100410
100472
100472
100472
100514
100535
100555
100617
100700
100721
100783
100887
100949
101032
101114
101177
101218
101322
101467
101570
101694
101756
101819
101901
101922
102005
102005
101881
101881
101798
101674
101632
101508
101404
101280
101177
101156
101032
100928
100907
100845
100845
100845
100783
100804
100762
100721
100721
100762
100783
100721
100742
100742
100680
100680
100680
100721
100783
100804
100783
100783
100804
100824
100804
100824
100804
100721
100804
100887
100866
100866
100866
100804
100824
100866
100866
100928
100907
100824
100783
100804
100845
100804
100824
100845
100783
100762
100804
100783
100762
100762
100783
100804
100804
100866
100928
101094
101197
101135
101197
101301
101487
101777
101943
102150
102295
102233
102419
102585
102440
102067
101508
101094
100824
100617
100576
100493
100452
100514
100472
100431
100369
100286
100307
100390
100307
100286
100327
100369
100410
100431
100431
100472
100535
100493
100472
100452
100410
100472
100514
100514
100638
100410
99706
99561
100120
101529
104656
108405
111553
113624
112112
108239
105795
104304
103061
102150
101756
101591
101197
101073
100990
100907
100824
100762
100742
100680
100659
100638
100597
100659
100700
100700
100700
100680
100617
100638
100762
100804
100700
100659
100721
100721
100742
100742
100700
100783
100783
100742
100804
100804
100783
100804
100845
100928
100949
100969
101094
101135
101177
101322
101467
101508
101529
101674
101777
101798
101881
101901
101943
102067
102129
102150
102191
102212
102212
102191
102150
102067
101964
101839
101715
101611
101508
101425
101363
101322
101259
101218
101218
101156
101135
101114
101094
101073
101073
101052
101032
101032
101032
101052
101032
101052
101073
101032
101052
101094
101094
101135
101177
101197
101197
101239
101259
101259
101280
101301
101322
101280
101239
101239
101239
101259
101239
101197
101197
101197
101156
101094
101073
101073
101032
100990
100990
100969
100949
100949
100969
101011
101094
101218
101218
101197
101239
101342
101611
101943
102212
102378
102295
102295
102481
102481
102212
101756
101301
101011
100824
100638
100514
100493
100452
100410
100369
100307
100265
100265
100245
100286
100265
100224
100245
100245
100265
100265
100245
100245
100286
100307
100307
100307
100307
100369
100410
100452
100100
99520
99603
100327
101964
105091
108757
111946
113831
112215
108695
106416
104697
103310
102461
102026
101632
101114
100887
100721
100617
100597
100514
100472
100472
100452
100431
100452
100452
100410
100431
100452
100410
100431
100410
100390
100410
100410
100410
100390
100390
100390
100390
100410
100410
100410
100431
100472
100535
100535
100514
100597
100638
100659
100680
100721
100824
100928
100969
101032
101135
101218
101301
101404
101508
101611
101674
101736
101860
101943
102005
102046
102046
102005
101964
101881
101756
101632
101467
101322
101218
101094
100990
100907
100866
100824
100762
100700
100700
100700
100659
100638
100638
100617
100597
100576
100576
100555
100555
100535
100555
100597
100555
100576
100617
100617
100617
100638
100659
100659
100680
100721
100700
100721
100783
100866
100866
100824
100845
100845
100824
100845
100824
100804
100824
100824
100824
100845
100783
100804
100824
100845
100907
101011
101156
101218
101177
101197
101239
101384
101653
101964
102254
102316
102254
102398
102461
102274
101943
101508
101094
100845
100721
100597
100535
100452
100410
100390
100348
100307
100265
100203
100245
100224
100182
100245
100203
100224
100245
100245
100245
100245
100265
100265
100265
100348
100369
100452
100307
99706
99561
100079
101197
103786
107493
110993
113437
113210
109999
107121
105547
103973
102937
102357
101839
101322
100928
100742
100617
100493
100452
100390
100369
100369
100307
100307
100327
100348
100348
100327
100327
100307
100307
100348
100348
100348
100369
100348
100307
100307
100307
100327
100348
100348
100410
100410
100390
100431
100452
100472
100514
100535
100576
100617
100680
100762
100866
100969
101052
101135
101280
101363
101446
101529
101632
101777
101839
101922
102046
102088
102088
102026
101984
101922
101798
101653
101529
101446
101301
101177
101094
101011
100949
100907
100866
100866
100866
100845
100845
100824
100824
100824
100783
100824
100804
100742
100742
100721
100700
100721
100721
100700
100700
100680
100721
100742
100700
100700
100742
100742
100742
100742
100742
100742
100700
100721
100762
100762
100762
100762
100783
100762
100762
100762
100762
100742
100721
100742
100721
100700
100700
100700
100700
100700
100680
100680
100742
100824
100907
101011
101052
101032
101094
101197
101363
101632
101964
102295
102316
102233
102357
102419
102274
101901
101404
101032
100845
100680
100514
100390
100348
100327
100286
100224
100203
100162
100141
100182
100182
100182
100162
100141
100162
100162
100182
100203
100224
100224
100182
100182
100203
100245
100390
100141
99520
99499
100100
101322
104097
107783
111159
113603
112857
109254
106499
104842
103351
102543
102109
101694
101177
100824
100617
100514
100493
100472
100390
100286
100265
100286
100265
100307
100327
100307
100265
100203
100182
100203
100245
100265
100327
100327
100286
100307
100307
100224
100265
100307
100286
100265
100286
100348
100348
100327
100410
100472
100514
100617
100638
100617
100700
100804
100949
101114
101197
101280
101363
101425
101508
101674
101777
101881
101984
102005
102046
102088
102088
102046
101943
101798
101694
101591
101404
101177
101052
101052
101032
101011
100907
100804
100762
100680
100762
100824
100742
100721
100742
100762
100700
100638
100700
100680
100680
100659
100638
100721
100721
100762
100742
100638
100659
100680
100659
100680
100659
100659
100680
100721
100742
100742
100700
100680
100721
100762
100783
100783
100783
100783
100783
100783
100700
100700
100783
100762
100721
100742
100804
100783
100804
100804
100824
100990
101135
101177
101156
101177
101259
101425
101736
102046
102254
102274
102274
102481
102543
102357
102005
101529
101114
100866
100762
100659
100514
100472
100472
100452
100390
100369
100348
100286
100286
100369
100472
100410
100265
100245
100369
100452
100472
100535
100452
100348
100410
100390
100390
100472
100493
100576
100286
99665
99623
100182
101611
104718
108425
111594
113499
111677
107783
105422
104035
102896
102026
101632
101404
101032
100969
100907
100804
100721
100700
100700
100617
100659
100659
100535
100555
100535
100555
100700
100783
100721
100659
100617
100617
100638
100597
100576
100659
100680
100617
100638
100700
100762
100804
100742
100742
100804
100866
100866
100907
100990
101011
101094
101177
101259
101322
101404
101529
101611
101715
101798
101881
102005
102046
102026
102171
102254
102212
102274
102336
102295
102233
102129
102046
101984
101736
101529
101508
101446
101322
101239
101156
101156
101177
101114
101114
101094
101073
101052
101052
101073
101032
101011
100990
100990
101011
100969
100990
101032
101052
101073
101094
101094
101114
101135
101177
101218
101259
101259
101280
101322
101301
101280
101342
101342
101342
101342
101322
101342
101342
101363
101363
101322
101301
101301
101301
101280
101239
101239
101259
101218
101239
101218
101239
101363
101467
101446
101446
101446
101487
101694
102005
102274
102543
102564
102461
102564
102647
102502
102150
101674
101280
101052
100907
100762
100700
100659
100597
100576
100535
100514
100472
100452
100472
100493
100472
100452
100472
100493
100493
100514
100493
100472
100493
100472
100472
100472
100535
100576
100597
100576
100037
99561
99913
100742
102730
106147
109730
112712
113810
111325
108011
106044
104387
103144
102461
102046
101611
101197
100969
100845
100742
100680
100638
100617
100638
100617
100576
100555
100555
100555
100535
100535
100535
100555
100555
100555
100597
100576
100597
100617
100617
100617
100638
100638
100638
100638
100659
100700
100721
100721
100762
100804
100824
100866
100907
100969
101052
101177
101259
101322
101384
101487
101591
101653
101756
101881
101964
102026
102109
102191
102254
102295
102274
102212
102129
102005
101881
101777
101611
101508
101404
101301
101239
101177
101114
101052
100990
100969
100949
100928
100907
100887
100887
100887
100866
100845
100866
100866
100824
100804
100824
100804
100804
100804
100783
100804
100804
100824
100824
100845
100824
100845
100845
100845
100866
100866
100887
100887
100866
100866
100887
100887
100907
100887
100845
100824
100804
100804
100824
100824
100845
100887
100969
101135
101114
101094
101135
101177
101342
101591
101922
102191
102233
102171
102295
102419
102254
101881
101487
101073
100845
100680
100555
100493
100390
100369
100348
100327
100348
100307
100265
100265
100265
100286
100286
100224
100224
100245
100224
100245
100245
100265
100265
100265
100327
100307
100410
100307
99665
99520
100079
101239
103828
107473
110931
113355
113106
109875
107017
105484
103910
102958
102398
101839
101280
100845
100700
100576
100493
100452
100390
100369
100369
100348
100348
100348
100307
100348
100348
100327
100348
100348
100348
100348
100327
100327
100327
100307
100307
100327
100327
100327
100327
100327
100369
100390
100390
100410
100472
100514
100535
100576
100638
100700
100742
100824
100969
101094
101177
101259
101384
101508
101632
101715
101839
101922
102005
102129
102212
102212
102171
102129
102067
101943
101777
101632
101508
101404
101301
101177
101094
101032
100990
100990
100949
100928
100907
100907
100969
100949
100907
100928
100928
100887
100907
100887
100824
100824
100824
100804
100804
100804
100783
100762
100783
100762
100762
100762
100762
100762
100762
100762
100762
100762
100762
100742
100742
100762
100762
100762
100762
100721
100721
100700
100742
100700
100700
100721
100680
100680
100721
100659
100638
100680
100680
100659
100659
100659
100700
100762
100907
100990
101032
101032
101052
101114
101280
101549
101860
102191
102212
102109
102274
102336
102129
101777
101342
100969
100721
100535
100452
100348
100265
100265
100245
100203
100182
100182
100182
100141
100120
100120
100120
100120
100141
100162
100162
100162
100203
100203
100162
100182
100265
100265
100369
100265
99623
99478
100058
101156
103765
107411
110848
113417
113168
109834
106996
105422
103807
102751
102274
101798
101280
100907
100742
100617
100514
100472
100410
100369
100369
100286
100265
100286
100286
100307
100307
100265
100265
100286
100265
100265
100245
100245
100265
100245
100245
100245
100265
100286
100265
100265
100286
100286
100327
100369
100390
100431
100493
100555
100617
100680
100721
100783
100928
100969
101073
101197
101259
101363
101487
101549
101611
101674
101736
101819
101860
101901
101860
101798
101736
101611
101487
101342
101197
101052
100887
100762
100700
100638
100617
100576
100555
100555
100493
100493
100493
100493
100472
100472
100493
100431
100431
100452
100452
100452
100410
100390
100390
100390
100390
100431
100452
100431
100452
100452
100410
100431
100472
100493
100514
100493
100452
100452
100493
100535
100535
100555
100535
100514
100514
100472
100514
100472
100369
100410
100493
100514
100472
100472
100452
100493
100493
100493
100514
100472
100410
100431
100493
100493
100410
100369
100369
100452
100555
100680
100783
100804
100804
100845
100990
101259
101549
101901
102026
101881
101984
102109
101984
101674
101177
100742
100493
100348
100307
100224
100120
100120
100058
99996
100058
100037
99996
99996
99975
99955
99913
99913
99975
99996
99955
99913
99892
99975
100058
100058
100037
100058
100058
100100
100141
99644
99168
99437
100224
102212
105692
109233
112278
113313
110496
106913
104925
103496
102419
101736
101467
101052
100659
100514
100390
100327
100265
100245
100265
100245
100203
100203
100203
100079
100017
100120
100286
100369
100307
100245
100224
100182
100224
100265
100182
100141
100182
100245
100265
100265
100245
100224
100245
100265
100307
100307
100307
100431
100535
100617
100700
100742
100783
100907
101032
101073
101197
101280
101322
101404
101446
101549
101653
101632
101715
101819
101860
101860
101798
101715
101632
101508
101404
101342
101280
101156
101011
100928
100907
100907
100824
100824
100845
100742
100742
100742
100721
100721
100680
100638
100617
100597
100617
100700
100742
100742
100721
100721
100742
100783
100804
100762
100742
100845
100928
100887
100928
101011
101011
101032
101052
101032
101032
101094
101135
101114
101114
101135
101114
101094
101052
101094
101135
101073
101011
101032
101052
101135
101135
101011
100990
101011
101032
101032
101032
100990
101032
101135
101239
101384
101446
101425
101446
101529
101674
101943
102254
102543
102647
102543
102668
102813
102647
102254
101756
101342
101114
100969
100845
100762
100700
100680
100659
100638
100597
100555
100535
100493
100493
100514
100514
100514
100535
100555
100535
100555
100576
100576
100638
100680
100617
100597
100638
100597
100700
100514
99810
99623
100100
101239
103910
107514
110766
113272
112692
109026
106189
104594
103289
102336
101819
101549
101114
100907
100762
100617
100576
100493
100452
100431
100410
100410
100410
100431
100431
100431
100369
100369
100369
100390
100410
100410
100390
100369
100369
100348
100327
100327
100348
100369
100348
100369
100390
100369
100369
100410
100452
100493
100535
100555
100576
100617
100700
100783
100866
100928
101032
101114
101197
101280
101363
101446
101529
101591
101674
101756
101819
101860
101839
101798
101736
101632
101529
101425
101301
101177
101073
100990
100887
100824
100783
100721
100680
100597
100576
100617
100597
100555
100555
100514
100493
100493
100493
100493
100452
100452
100493
100493
100493
100514
100535
100514
100514
100514
100535
100555
100555
100555
100597
100617
100659
100659
100680
100680
100659
100680
100659
100617
100597
100597
100555
100576
100555
100514
100535
100514
100535
100535
100472
100452
100452
100431
100452
100493
100555
100680
100742
100721
100721
100783
100907
101114
101404
101756
101943
101860
101881
102026
101984
101653
101218
100804
100493
100327
100162
100058
99996
99955
99934
99913
99892
99892
99851
99851
99872
99851
99810
99789
99810
99810
99810
99851
99872
99892
99892
99810
99851
99934
99955
99996
99603
99085
99354
100162
101943
105215
108860
111905
113292
111325
107845
105836
104304
102875
102191
101674
101156
100638
100327
100182
100058
99975
99934
99872
99810
99789
99810
99810
99789
99789
99768
99768
99789
99810
99789
99789
99810
99810
99789
99789
99789
99810
99789
99768
99789
99810
99830
99830
99830
99830
99851
99892
99913
99955
100017
100058
100141
100224
100327
100390
100472
100597
100700
100804
100907
100990
101052
101156
101280
101384
101446
101467
101467
101446
101404
101322
101197
101073
100928
100804
100680
100514
100410
100369
100307
100245
100224
100162
100162
100203
100203
100203
100182
100141
100120
100141
100162
100141
100120
100120
100120
100120
100100
100120
100120
100100
100120
100120
100100
100100
100058
100037
100058
100079
100100
100100
100079
100120
100100
100079
100100
100100
100079
100079
100079
100058
100037
100037
100037
100037
100017
99996
99975
99975
99975
99934
99955
99934
99934
99934
99913
99934
99934
99892
99892
99934
99913
99913
99934
99975
100017
100141
100327
100327
100327
100390
100472
100721
101011
101363
101549
101446
101425
101570
101549
101239
100742
100307
100017
99830
99748
99644
99540
99499
99478
99478
99458
99458
99437
99395
99375
99375
99354
99395
99395
99395
99437
99437
99416
99437
99437
99375
99458
99561
99582
99623
99147
98650
99002
99830
101736
105153
108798
111801
112982
110641
107141
105194
103558
102150
101487
101114
100617
100100
99892
99748
99665
99623
99561
99520
99520
99520
99499
99458
99437
99458
99437
99437
99437
99458
99437
99416
99437
99458
99458
99437
99458
99478
99478
99458
99458
99458
99458
99437
99416
99458
99478
99540
99582
99603
99644
99706
99789
99892
99996
100079
100141
100224
100286
100369
100472
100555
100638
100742
100824
100887
100949
100990
100990
100949
100887
100824
100742
100617
100493
100369
100245
100141
100017
99934
99892
99851
99810
99789
99768
99748
99727
99706
99748
99768
99748
99748
99727
99748
99768
99748
99748
99748
99727
99748
99768
99768
99768
99789
99789
99768
99810
99789
99830
99851
99789
99830
99810
99768
99768
99748
99810
99830
99810
99830
99810
99748
99727
99768
99789
99789
99748
99706
99685
99665
99665
99644
99685
99685
99623
99603
99623
99685
99665
99644
99685
99706
99665
99665
99727
99830
100017
100058
99996
100037
100058
100182
100535
100804
101094
101218
101052
101032
100969
100866
100638
100141
99789
99603
99458
99416
99333
99271
99230
99209
99168
99105
99126
99147
99147
99126
99085
99085
99105
99105
99126
99105
99126
99126
99126
99168
99168
99168
99271
99313
99313
98857
98298
98526
99313
101073
104428
108135
111304
112733
110372
106810
104635
102958
101777
101052
100680
100265
99830
99644
99499
99416
99375
99333
99313
99271
99292
99354
99313
99313
99313
99250
99209
99188
99209
99230
99209
99209
99250
99250
99168
99168
99209
99230
99313
99354
99313
99271
99271
99271
99292
99354
99416
99458
99540
99603
99644
99706
99727
99789
99892
99934
100017
100182
100307
100410
100472
100514
100597
100659
100700
100783
100845
100804
100742
100659
100576
100493
100410
100327
100224
100079
99996
99975
99913
99810
99768
99727
99665
99685
99685
99603
99582
99561
99540
99540
99540
99520
99520
99478
99437
99520
99561
99561
99582
99561
99561
99603
99644
99685
99685
99685
99665
99644
99706
99768
99748
99706
99685
99685
99748
99685
99665
99706
99706
99665
99665
99685
99623
99603
99644
99644
99603
99603
99644
99665
99644
99561
99561
99561
99561
99582
99561
99499
99499
99540
99603
99540
99499
99520
99582
99665
99706
99830
100058
100327
100638
100762
100783
100845
100762
100762
100783
100638
100286
99851
99623
99520
99478
99395
99292
99292
99271
99230
99292
99313
99271
99188
99147
99271
99292
99168
99168
99230
99271
99313
99271
99230
99230
99250
99333
99333
99333
99395
98878
98339
98567
99271
101156
104718
108301
111304
112567
109999
106313
104221
102771
101674
100887
100555
100245
99934
99810
99644
99540
99499
99458
99458
99416
99395
99333
99313
99354
99354
99354
99395
99437
99395
99395
99375
99333
99375
99354
99333
99375
99395
99375
99354
99375
99416
99416
99437
99499
99499
99520
99603
99644
99706
99768
99810
99872
99975
100058
100100
100182
100286
100369
100452
100472
100535
100638
100680
100742
100824
100866
100907
100907
100845
100824
100742
100617
100535
100472
100348
100224
100141
100058
99996
99934
99892
99851
99789
99768
99768
99727
99685
99685
99644
99644
99644
99603
99582
99561
99561
99582
99603
99603
99582
99623
99665
99665
99685
99727
99789
99830
99810
99789
99789
99810
99851
99851
99872
99892
99872
99892
99892
99851
99810
99810
99830
99768
99789
99810
99789
99810
99789
99768
99768
99748
99748
99768
99748
99706
99706
99685
99706
99706
99727
99727
99685
99685
99685
99623
99644
99727
99830
99934
100120
100348
100576
100804
100866
100969
101011
100928
100969
100907
100659
100307
99934
99706
99561
99499
99478
99395
99354
99333
99271
99250
99250
99250
99250
99230
99230
99230
99250
99250
99250
99250
99250
99250
99230
99271
99313
99354
99416
99043
98443
98671
99437
101052
104200
107866
111097
112816
111221
107742
105484
103910
102419
101611
101156
100659
100141
99851
99685
99582
99520
99478
99416
99375
99375
99333
99292
99292
99292
99313
99313
99292
99292
99292
99292
99313
99333
99354
99333
99333
99333
99333
99333
99333
99333
99313
99333
99375
99416
99416
99437
99478
99520
99540
99603
99706
99789
99851
99934
100058
100162
100245
100348
100410
100514
100597
100659
100742
100824
100907
100969
100990
100969
100907
100824
100721
100597
100452
100327
100203
100079
99996
99892
99810
99768
99748
99706
99665
99665
99644
99623
99623
99644
99623
99603
99623
99623
99623
99582
99582
99603
99582
99582
99623
99603
99603
99623
99644
99665
99665
99665
99706
99748
99748
99768
99768
99768
99789
99768
99748
99727
99727
99706
99706
99706
99706
99665
99665
99665
99665
99665
99644
99644
99665
99623
99603
99623
99623
99603
99582
99561
99540
99520
99540
99582
99540
99499
99520
99540
99520
99561
99623
99685
99810
99955
99975
100017
100120
100369
100638
100866
101073
100949
100742
100804
100762
100597
100265
99851
99603
99416
99333
99313
99271
99250
99209
99188
99168
99147
99126
99126
99126
99126
99147
99147
99168
99168
99230
99250
99230
99230
99230
99271
99292
99333
99313
98795
98401
98795
99665
101756
105236
108860
111739
112609
110041
106665
104822
103186
101798
101156
100783
100265
99789
99603
99478
99375
99292
99250
99188
99168
99168
99147
99126
99105
99105
99064
99064
99126
99126
99105
99085
99085
99105
99105
99126
99147
99168
99147
99147
99168
99147
99168
99126
99105
99168
99230
99271
99333
99354
99333
99437
99582
99685
99789
99830
99934
100017
100017
100120
100265
100369
100472
100555
100638
100721
100762
100783
100804
100824
100721
100597
100535
100472
100327
100182
100058
100017
99934
99810
99810
99768
99665
99623
99623
99603
99582
99540
99520
99520
99561
99561
99561
99540
99540
99540
99499
99540
99561
99582
99582
99582
99603
99603
99623
99603
99623
99644
99623
99623
99644
99685
99748
99727
99706
99706
99748
99727
99685
99665
99685
99644
99603
99706
99727
99665
99644
99623
99623
99603
99623
99644
99582
99561
99561
99561
99603
99540
99499
99540
99540
99520
99520
99540
99540
99540
99540
99582
99665
99789
99872
99913
99934
100017
100203
100535
100804
101032
101135
100907
100845
100887
100804
100555
100058
99644
99458
99333
99313
99271
99209
99188
99209
99147
99105
99105
99085
99105
99147
99168
99126
99126
99147
99168
99188
99105
99126
99209
99250
99250
99313
99292
99333
99250
98650
98298
98650
99520
101694
105277
108860
111822
112464
109399
105940
103973
102543
101425
100638
100307
99975
99748
99644
99499
99437
99416
99416
99395
99354
99333
99271
99250
99271
99313
99292
99271
99292
99375
99395
99333
99313
99354
99354
99354
99313
99292
99313
99333
99313
99313
99333
99354
99395
99458
99499
99520
99540
99644
99727
99748
99789
99934
100017
100100
100182
100265
100327
100369
100452
100576
100617
100659
100700
100721
100845
100928
100928
100887
100804
100721
100576
100431
100410
100369
100245
100162
100037
99975
99955
99913
99830
99789
99727
99727
99748
99706
99706
99685
99665
99665
99582
99623
99685
99665
99665
99665
99685
99685
99644
99685
99727
99685
99748
99830
99851
99768
99748
99851
99892
99892
99934
99934
99892
99892
99934
99955
99996
100017
99975
99996
99975
99955
99955
99913
99892
99934
99975
99934
99892
99851
99851
99851
99851
99851
99810
99810
99789
99789
99810
99851
99955
100100
100182
100141
100182
100245
100369
100659
101011
101239
101322
101259
101301
101301
101197
100949
100452
100037
99830
99706
99603
99499
99458
99416
99354
99313
99271
99292
99271
99250
99250
99230
99250
99230
99230
99250
99230
99209
99230
99250
99250
99230
99230
99250
99292
99333
99416
99043
98422
98463
99126
100597
103662
107348
110559
112609
111221
107597
105070
103351
102067
101197
100680
100369
99913
99685
99540
99416
99354
99292
99292
99230
99209
99209
99188
99188
99188
99188
99188
99188
99188
99168
99188
99209
99230
99209
99168
99168
99168
99168
99168
99168
99188
99230
99209
99209
99271
99271
99250
99354
99395
99437
99478
99561
99685
99768
99851
99934
99975
100079
100162
100245
100286
100348
100431
100514
100597
100638
100680
100680
100680
100659
100576
100493
100390
100203
100141
100079
99955
99851
99748
99644
99582
99540
99499
99478
99458
99458
99416
99395
99395
99375
99333
99354
99395
99354
99333
99354
99354
99375
99375
99375
99395
99375
99375
99416
99437
99437
99478
99499
99520
99520
99520
99520
99540
99520
99540
99540
99561
99582
99540
99540
99520
99499
99478
99458
99478
99458
99437
99395
99416
99395
99375
99395
99375
99395
99437
99458
99603
99685
99685
99685
99727
99851
100037
100307
100680
100824
100742
100824
100990
100907
100597
100162
99768
99478
99271
99147
99064
99002
98981
98961
98940
98919
98898
98857
98836
98836
98816
98836
98836
98836
98857
98836
98836
98857
98857
98857
98857
98898
98961
99002
99043
98629
98111
98318
99105
100824
104076
107804
110911
112423
110579
107058
104987
103413
101943
101177
100700
100224
99685
99395
99250
99147
99085
99043
99002
98981
98961
98940
98919
98940
98919
98940
98940
98940
98919
98898
98898
98919
98919
98919
98940
98940
98898
98919
98919
98919
98919
98898
98919
98940
98919
98961
99023
99064
99105
99168
99209
99292
99375
99458
99561
99623
99706
99789
99872
99955
100037
100162
100265
100348
100410
100472
100514
100555
100535
100452
100369
100286
100141
99975
99830
99685
99582
99520
99416
99354
99292
99230
99271
99230
99209
99230
99209
99230
99209
99209
99250
99209
99188
99209
99168
99188
99188
99168
99209
99230
99209
99250
99209
99209
99230
99230
99250
99230
99209
99230
99230
99230
99230
99230
99230
99230
99230
99250
99250
99250
99230
99209
99188
99188
99188
99188
99168
99168
99168
99168
99168
99147
99188
99147
99126
99168
99168
99209
99292
99395
99540
99582
99561
99623
99706
99913
100182
100452
100783
100783
100700
100866
100907
100742
100369
99830
99437
99230
99064
98961
98878
98836
98795
98774
98795
98795
98774
98712
98691
98691
98691
98691
98733
98733
98774
98774
98753
98753
98774
98753
98753
98774
98774
98857
98816
98236
97925
98360
99313
101611
105277
108860
111656
112070
109026
105816
104014
102378
101259
100721
100307
99810
99458
99271
99105
99023
98981
98919
98878
98816
98774
98795
98857
98857
98878
98857
98816
98816
98816
98816
98795
98836
98836
98753
98712
98733
98753
98753
98753
98753
98795
98816
98857
98898
98919
98961
99002
99043
99105
99168
99250
99313
99375
99416
99540
99623
99685
99789
99851
99955
100100
100203
100224
100327
100369
100369
100431
100493
100452
100348
100286
100162
100058
99955
99810
99706
99603
99520
99458
99416
99416
99375
99333
99271
99230
99209
99209
99230
99230
99250
99209
99188
99230
99209
99188
99188
99209
99250
99250
99292
99313
99271
99209
99230
99292
99354
99354
99333
99333
99313
99333
99395
99416
99416
99395
99375
99437
99437
99375
99375
99375
99375
99333
99313
99333
99292
99271
99250
99292
99313
99292
99271
99209
99230
99250
99230
99250
99250
99250
99230
99209
99188
99147
99147
99168
99209
99230
99250
99230
99209
99230
99271
99313
99437
99520
99582
99623
99623
99706
99996
100327
100514
100762
100824
100680
100680
100638
100576
100245
99706
99416
99168
99064
99085
99043
98981
98919
98878
98816
98816
98816
98753
98795
98836
98836
98857
98898
98857
98878
98898
98857
98898
98898
98940
98919
98878
98961
98981
99043
98878
98215
97987
98422
99499
102150
105878
109295
112008
111822
108301
105215
103393
102005
101052
100452
100162
99748
99458
99313
99188
99168
99085
99043
99023
99023
99002
98981
98940
98919
98919
98940
98940
98940
98981
98961
98940
98961
98961
98981
99002
99002
98981
98981
98961
99002
99043
99023
99023
99064
99085
99126
99168
99209
99271
99333
99416
99499
99582
99623
99685
99810
99892
99955
100017
100120
100203
100265
100327
100410
100472
100535
100576
100617
100576
100493
100410
100327
100224
100100
99975
99872
99748
99685
99603
99499
99478
99458
99416
99416
99395
99313
99333
99333
99313
99271
99271
99292
99292
99292
99292
99292
99292
99271
99271
99292
99271
99313
99333
99333
99395
99416
99416
99416
99416
99437
99458
99458
99458
99499
99520
99499
99540
99540
99499
99499
99478
99458
99437
99416
99437
99458
99458
99458
99458
99437
99437
99437
99416
99395
99395
99375
99395
99395
99354
99395
99437
99458
99561
99727
99727
99706
99768
99851
100058
100327
100617
100928
100887
100824
100969
100969
100762
100327
99851
99520
99292
99105
99064
99002
98898
98898
98878
98816
98816
98753
98733
98733
98712
98712
98691
98671
98712
98712
98712
98753
98733
98733
98753
98733
98774
98816
98795
98878
98505
97904
98111
98816
100431
103620
107369
110579
112360
110704
107121
104905
103268
101736
100949
100514
100058
99561
99271
99126
99043
98981
98961
98919
98878
98836
98836
98836
98836
98836
98816
98836
98836
98816
98795
98816
98816
98795
98774
98795
98795
98774
98774
98795
98795
98774
98816
98816
98816
98836
98878
98940
99002
99043
99105
99209
99271
99333
99416
99478
99582
99706
99768
99851
99934
100017
100100
100182
100286
100369
100431
100493
100514
100514
100452
100369
100286
100162
100037
99913
99810
99685
99561
99458
99416
99375
99313
99271
99271
99271
99271
99271
99271
99230
99209
99209
99230
99250
99230
99250
99250
99250
99230
99209
99250
99271
99230
99230
99250
99250
99230
99250
99271
99230
99250
99292
99292
99292
99292
99292
99292
99313
99292
99313
99333
99292
99292
99313
99292
99271
99271
99271
99250
99250
99271
99250
99271
99230
99209
99250
99230
99209
99271
99333
99395
99540
99644
99623
99623
99706
99830
100079
100390
100721
100866
100742
100824
100949
100845
100514
99996
99582
99333
99188
99105
98981
98898
98878
98857
98816
98795
98774
98795
98753
98733
98753
98753
98733
98712
98733
98712
98691
98712
98733
98795
98816
98774
98816
98836
98898
98816
