# aauwss ecg epoch, one sample per line
# source AAUWSS (Aalborg University Wearable Sleep Study) v1.1, Zenodo 10.5281/zenodo.16919071
# licence CC-BY-4.0 - Djanian S, Nielsen T D, Nielsen S H, Bruun A (2025)
# subject 04
# fs_hz 200.0
# samples 6000
# scale 0.1  (value = count * scale, arbitrary published units, NOT mV)
# source_row 460 of 920
# stage_label N2
# epoch 461.0
15317
15470
15500
15266
15205
15409
15511
15297
14940
15083
15745
16733
19565
24230
28243
30403
30403
29160
24729
17426
14085
14360
14665
15011
15297
15572
15755
15623
15531
15714
15765
15633
15602
15775
15857
15684
15612
15796
15887
15765
15694
15857
15938
15796
15786
15928
16010
15887
15826
16030
16132
16040
16010
16183
16366
16264
16234
16499
16631
16519
16539
16814
16998
16957
16998
17303
17538
17548
17670
18027
18373
18465
18597
19004
19341
19422
19616
20064
20390
20461
20624
20981
21235
21164
21072
21144
20950
20410
19911
19585
19147
18434
17813
17477
17120
16600
16234
16142
15959
15562
15358
15439
15378
15134
15001
15124
15174
14899
14798
14981
15001
14767
14655
14818
14879
14665
14523
14665
14726
14512
14400
14523
14553
14349
14176
14319
14390
14166
14064
14197
14237
14034
13881
14023
14115
13932
13809
13942
14013
13820
13708
13881
13932
13718
13626
13809
13891
13677
13596
13748
13779
13616
13514
13657
13697
13504
13412
13585
13677
13504
13392
13545
13636
13453
13331
13504
13596
13422
13310
13463
13534
13341
13249
13402
13494
13321
13219
13402
13484
13300
13188
13351
13422
13239
13188
13351
13402
13219
13117
13280
13361
13168
13086
13229
13290
13127
13005
13209
13341
13137
13035
13209
13300
13107
12995
13168
13270
13086
13005
13178
13300
13219
13056
13209
13433
13422
13443
13636
13860
13972
14064
14298
14329
13983
13738
13799
13718
13371
13158
13168
13107
12913
12821
12964
13046
12893
12791
13015
13035
12536
12506
13351
14685
17589
21948
25951
28213
27968
26512
21918
14859
11803
11894
12282
12984
13178
13158
13422
13545
13351
13270
13463
13575
13433
13361
13524
13647
13514
13433
13616
13697
13545
13504
13697
13799
13667
13606
13799
13911
13769
13748
13993
14125
14003
13972
14186
14339
14247
14237
14502
14685
14594
14635
14930
15103
15083
15164
15490
15755
15796
15938
16346
16662
16723
16886
17354
17731
17843
18027
18475
18841
18862
19004
19392
19544
19371
19157
19045
18760
18139
17548
17191
16743
16071
15470
15225
14950
14461
14125
14074
13983
13657
13463
13565
13565
13351
13219
13341
13412
13209
13066
13219
13300
13096
12974
13127
13188
12974
12862
12995
13025
12842
12730
12872
12913
12720
12597
12709
12791
12567
12445
12577
12638
12495
12383
12495
12567
12394
12292
12455
12495
12312
12231
12373
12455
12282
12200
12343
12414
12241
12119
12302
12373
12170
12088
12261
12332
12149
12037
12190
12312
12139
12037
12190
12261
12119
12017
12190
12282
12078
11996
12180
12251
12088
11986
12159
12231
12078
12007
12170
12251
12088
12017
12190
12261
12098
12027
12210
12312
12119
12037
12241
12312
12170
12108
12231
12302
12159
12088
12271
12363
12200
12098
12282
12404
12231
12170
12363
12445
12302
12261
12445
12546
12383
12312
12506
12597
12526
12516
12608
12740
12750
12832
13107
13270
13259
13443
13820
13972
13759
13494
13555
13524
13209
13005
13046
12964
12709
12638
12811
12883
12740
12709
12872
13025
12791
12404
12720
13443
14604
17752
22437
26451
28488
28406
27113
22009
14604
11894
12373
12771
13270
13524
13738
13962
13840
13738
13952
14085
13962
13891
14125
14247
14135
14115
14309
14441
14319
14258
14492
14624
14492
14461
14696
14828
14736
14747
14961
15113
15022
15011
15286
15460
15368
15388
15643
15837
15816
15847
16162
16417
16387
16458
16804
17100
17140
17273
17670
17996
18088
18312
18791
19167
19300
19534
19982
20349
20481
20655
21103
21408
21378
21307
21368
21235
20746
20257
19931
19524
18841
18240
17965
17619
17069
16662
16570
16488
16152
15908
15969
15959
15765
15633
15735
15816
15633
15521
15663
15735
15572
15460
15592
15674
15511
15399
15511
15572
15419
15327
15511
15572
15327
15195
15317
15399
15236
15134
15266
15337
15174
15093
15276
15317
15113
15052
15215
15276
15124
15022
15195
15266
15083
15011
15154
15246
15103
14981
15103
15215
15042
14930
15134
15236
15042
14971
15124
15195
15022
14899
15083
15185
15042
14961
15093
15174
15001
14930
15093
15164
15011
14910
15062
15174
15022
14920
15093
15195
15022
14940
15124
15195
15042
14950
15093
15164
15001
14920
15073
15154
15022
14920
15093
15205
15022
14910
15103
15215
15022
14910
15083
15185
15032
14920
15103
15205
15011
14920
15113
15195
15022
14930
15103
15297
15174
14991
15215
15521
15500
15449
15674
15949
16061
16112
16264
16234
15918
15674
15684
15633
15317
15093
15073
15062
14910
14777
14910
15011
14848
14818
15032
14899
14441
14645
15643
17568
21337
25758
29201
30525
29639
27082
20879
14991
13718
13911
14370
15022
15093
15093
15409
15521
15337
15256
15470
15623
15490
15439
15562
15684
15531
15399
15592
15694
15582
15521
15694
15837
15663
15592
15816
15918
15796
15745
15969
16122
16000
15949
16183
16356
16244
16234
16529
16682
16611
16631
16886
17089
17008
17069
17477
17731
17741
17864
18271
18617
18740
18933
19330
19667
19717
19901
20390
20716
20746
20858
21184
21368
21184
20889
20777
20481
19830
19259
18862
18393
17711
17151
16926
16621
16152
15826
15755
15694
15388
15154
15205
15205
15001
14879
15042
15073
14869
14736
14848
14910
14645
14492
14675
14747
14573
14461
14553
14614
14380
14217
14370
14410
14176
14054
14176
14227
14003
13901
14064
14115
13942
13840
13942
13983
13799
13677
13820
13911
13697
13555
13728
13779
13585
13484
13626
13697
13524
13412
13534
13606
13422
13331
13494
13524
13351
13290
13433
13545
13382
13229
13371
13473
13270
13158
13321
13382
13239
13168
13300
13371
13219
13107
13229
13331
13168
13046
13198
13270
13107
13025
13178
13239
13056
12954
13117
13209
13035
12913
13086
13158
12984
12893
13015
13107
12933
12832
12995
13076
12913
12801
12984
13107
12923
12933
13321
13565
13422
13341
13769
14278
14390
14410
14604
14757
14573
14360
14247
13860
13361
13056
12995
12964
12689
12546
12699
12730
12546
12475
12699
12821
12383
12047
12536
13463
15195
19045
23639
26909
27907
27153
24882
18577
12475
11324
11813
12251
12618
12740
13005
13198
13025
12893
13117
13239
13086
13015
13178
13280
13147
13096
13280
13382
13229
13147
13361
13494
13331
13270
13473
13606
13484
13453
13667
13799
13738
13697
13891
14074
13983
13952
14217
14390
14339
14349
14624
14859
14848
14899
15195
15490
15541
15623
16000
16366
16438
16611
17059
17415
17527
17741
18139
18444
18556
18729
19127
19351
19239
19096
19045
18811
18230
17670
17314
16876
16173
15572
15317
15011
14492
14135
14044
13942
13626
13351
13463
13484
13239
13117
13229
13300
13086
12984
13137
13178
12984
12872
13015
13076
12893
12760
12883
12974
12740
12628
12760
12791
12638
12495
12608
12699
12475
12353
12495
12546
12383
12292
12434
12495
12282
12180
12353
12424
12220
12119
12261
12332
12159
12068
12210
12271
12078
11976
12129
12210
12017
11935
12098
12159
11996
11884
12047
12139
11966
11864
12007
12098
11915
11793
11956
12088
11905
11813
11986
12037
11874
11793
11966
12037
11874
11803
11925
12007
11833
11742
11915
11976
11793
11721
11894
11996
11823
11721
11915
11976
11762
11681
11844
11915
11752
11670
11813
11915
11752
11650
11823
11935
11762
11681
11854
12027
12088
12200
12424
12516
12546
12821
13392
13708
13504
13443
13636
13616
13198
12669
12465
12282
11833
11599
11721
11762
11548
11395
11538
11630
11477
11467
11497
11273
11294
11905
13596
17120
21449
25096
27113
27001
25096
19279
12475
10519
10703
10927
11721
12037
11894
11905
12068
12149
11996
11915
12129
12220
12068
12027
12200
12302
12159
12088
12271
12414
12271
12210
12414
12526
12394
12363
12557
12658
12577
12546
12760
12933
12811
12801
13046
13219
13147
13178
13433
13606
13575
13585
13901
14207
14176
14247
14645
14950
15001
15164
15582
15949
16071
16254
16692
17049
17161
17375
17813
18128
18179
18261
18515
18566
18220
17853
17619
17212
16550
15969
15602
15164
14533
14034
13850
13647
13219
12923
12954
12903
12618
12424
12495
12577
12363
12220
12373
12434
12261
12129
12261
12332
12119
12017
12180
12231
11986
11874
12037
12078
11864
11742
11905
11945
11711
11609
11772
11833
11619
11528
11670
11721
11558
11436
11579
11640
11446
11375
11528
11589
11467
11365
11507
11558
11365
11263
11426
11528
11314
11232
11406
11446
11273
11171
11355
11467
11273
11161
11314
11406
11222
11151
11314
11365
11212
11131
11283
11365
11202
11080
11253
11355
11141
11049
11232
11314
11141
11029
11192
11263
11100
11029
11181
11253
11100
10988
11131
11243
11069
10998
11181
11232
11059
10998
11161
11232
11029
10937
11141
11192
10998
10947
11120
11222
11090
10988
11212
11467
11487
11497
11681
11884
12068
12414
12883
12995
12821
12760
12852
12720
12108
11579
11477
11314
10978
10805
10906
10978
10764
10631
10825
10906
10784
10652
10499
10580
11018
12149
15368
20033
23812
25972
26125
24760
19880
12628
9766
9969
9990
10468
11008
11171
11110
11080
11181
11283
11171
11120
11314
11395
11232
11181
11355
11446
11324
11253
11426
11558
11426
11375
11579
11711
11579
11538
11742
11864
11793
11823
12037
12180
12047
12007
12271
12434
12373
12424
12720
12923
12862
12923
13229
13463
13473
13606
13952
14207
14298
14482
14899
15276
15409
15551
16000
16397
16478
16651
17059
17385
17415
17375
17538
17477
17018
16611
16325
15857
15195
14584
14237
13850
13239
12821
12730
12536
12170
11945
11945
11905
11660
11497
11599
11660
11477
11385
11518
11538
11344
11253
11426
11487
11232
11110
11273
11314
11131
11008
11120
11161
10968
10866
11018
11090
10856
10743
10876
10886
10723
10631
10774
10845
10662
10601
10764
10794
10580
10509
10652
10672
10540
10468
10642
10703
10489
10367
10519
10591
10438
10346
10489
10570
10397
10295
10489
10540
10326
10275
10448
10499
10326
10255
10438
10499
10305
10214
10377
10448
10275
10214
10397
10458
10244
10153
10356
10448
10255
10163
10326
10397
10244
10173
10336
10417
10224
10153
10326
10356
10193
10142
10316
10397
10224
10163
10346
10407
10305
10417
10764
10876
10723
10835
11334
11823
11956
11905
12119
12210
11966
11721
11467
11100
10652
10295
10305
10326
10092
9990
10112
10163
10010
9939
10163
10153
9715
9674
10448
11772
14685
19137
23099
25259
24984
23486
19055
12108
8991
9083
9480
10102
10305
10356
10652
10784
10560
10499
10682
10784
10631
10601
10825
10896
10743
10703
10906
10998
10845
10794
10998
11100
10937
10906
11171
11314
11181
11141
11385
11497
11365
11385
11650
11803
11721
11752
12007
12180
12139
12190
12475
12679
12658
12771
13127
13382
13402
13545
13993
14329
14390
14624
15062
15399
15521
15735
16142
16458
16539
16672
17008
17151
16937
16692
16550
16213
15612
15052
14665
14217
13565
13056
12852
12557
12098
11813
11813
11721
11426
11273
11375
11395
11171
11049
11222
11243
11039
10978
11100
11151
10947
10856
10998
11008
10815
10733
10866
10917
10713
10621
10794
10794
10580
10509
10662
10703
10519
10417
10570
10621
10397
10316
10479
10509
10336
10265
10448
10530
10326
10255
10417
10468
10275
10183
10346
10367
10204
10163
10336
10407
10173
10092
10305
10367
10173
10102
10285
10336
10163
10112
10295
10356
10173
10092
10255
10326
10142
10081
10275
10326
10142
10081
10255
10316
10132
10081
10255
10305
10132
10081
10265
10305
10102
10061
10244
10316
10132
10061
10244
10305
10122
10061
10204
10265
10112
10051
10234
10305
10122
10051
10244
10336
10163
10244
10662
10856
10723
10713
11110
11538
11742
11864
12027
12139
11956
11782
11660
11243
10764
10448
10346
10316
10071
9949
10081
10102
9929
9878
10071
10193
9847
9521
9949
10733
12220
15765
20329
24047
25605
25177
23344
17171
10356
8818
9379
9827
10265
10346
10550
10713
10519
10468
10652
10713
10601
10550
10723
10825
10672
10631
10845
10917
10743
10733
10906
10998
10876
10845
11080
11192
11049
11018
11263
11385
11253
11253
11507
11660
11558
11599
11874
12047
11996
12057
12353
12567
12567
12658
13005
13259
13290
13422
13809
14166
14247
14441
14940
15286
15368
15602
16071
16387
16478
16682
17049
17252
17130
16988
16988
16702
16081
15551
15195
14685
14003
13443
13137
12842
12332
11976
11915
11782
11436
11243
11355
11334
11080
10978
11120
11151
10927
10825
10998
11039
10825
10764
10927
10957
10754
10662
10825
10866
10662
10601
10723
10754
10570
10468
10642
10703
10458
10356
10550
10550
10336
10244
10387
10458
10244
10153
10336
10377
10173
10092
10295
10336
10122
10041
10193
10244
10061
10041
10183
10204
10030
9949
10122
10183
10000
9939
10122
10173
9979
9918
10132
10183
9969
9929
10112
10153
9979
9908
10061
10112
9939
9888
10071
10132
9949
9908
10081
10122
9979
9898
10061
10142
9949
9898
10051
10081
9898
9857
10092
10122
9918
9888
10071
10122
9918
9847
10041
10112
9908
9867
10030
10061
9888
9786
9979
10071
9888
9857
10030
10122
10071
10224
10550
10611
10458
10693
11253
11670
11650
11599
11864
11844
11528
11202
10947
10652
10163
9908
9990
9908
9684
9643
9745
9745
9603
9623
9847
9704
9277
9521
10540
12536
16366
20828
24271
25401
24454
21816
15429
9755
8645
8879
9460
10041
10061
10112
10397
10417
10214
10214
10428
10499
10305
10316
10540
10560
10417
10407
10591
10693
10499
10479
10723
10784
10662
10621
10845
10968
10835
10845
11069
11192
11049
11059
11334
11436
11344
11395
11691
11823
11762
11905
12190
12332
12332
12445
12821
13076
13107
13280
13687
13952
14054
14329
14787
15093
15215
15460
15887
16193
16305
16448
16713
16825
16590
16366
16224
15826
15174
14655
14319
13830
13147
12669
12465
12190
11752
11487
11467
11365
11090
10957
11059
11080
10886
10815
10988
10988
10743
10723
10896
10896
10713
10652
10856
10876
10642
10601
10784
10815
10580
10530
10693
10672
10509
10438
10591
10642
10458
10448
10621
10631
10458
10417
10591
10611
10397
10397
10591
10611
10438
10438
10621
10621
10458
10468
10652
10693
10519
10479
10693
10743
10530
10499
10682
10764
10621
10591
10774
10815
10631
10611
10845
10866
10682
10713
10906
10917
10743
10733
10937
10998
10805
10784
10988
11029
10886
10876
11080
11120
10957
10947
11141
11222
11039
11008
11222
11273
11080
11069
11294
11314
11131
11120
11324
11385
11202
11171
11395
11446
11263
11283
11507
11518
11355
11355
11650
11935
11935
11915
12149
12445
12618
12872
13259
13290
13158
13229
13249
13035
12465
12119
12149
11925
11579
11538
11701
11732
11528
11477
11701
11782
11670
11528
11406
11589
12037
13371
16865
21368
24974
27062
27174
25697
20380
13310
10927
11212
11314
11905
12424
12526
12455
12455
12618
12699
12546
12567
12791
12862
12709
12669
12903
12954
12791
12842
13056
13107
12933
12944
13178
13259
13107
13127
13371
13473
13341
13341
13626
13738
13606
13677
13952
14074
14013
14074
14390
14553
14492
14604
14940
15144
15144
15327
15735
15979
16061
16305
16753
17059
17181
17436
17894
18200
18261
18536
18974
19208
19208
19229
19351
19218
18709
18302
18016
17517
16794
16244
15928
15490
14889
14512
14451
14237
13820
13657
13718
13636
13371
13310
13473
13443
13249
13219
13371
13382
13209
13158
13321
13351
13107
13086
13259
13239
13066
13015
13147
13158
12933
12893
13056
13015
12811
12781
12933
12933
12720
12669
12862
12852
12638
12628
12811
12821
12587
12536
12750
12760
12536
12526
12679
12669
12495
12485
12658
12658
12455
12434
12638
12628
12414
12424
12597
12618
12434
12404
12608
12608
12394
12363
12557
12587
12394
12383
12567
12546
12353
12343
12516
12506
12343
12332
12506
12536
12322
12302
12495
12506
12312
12271
12455
12495
12322
12271
12445
12495
12282
12261
12455
12455
12282
12261
12475
12495
12251
12261
12424
12434
12271
12210
12414
12434
12220
12210
12414
12414
12210
12231
12434
12608
12658
12720
12954
13076
13086
13331
13809
13932
13697
13779
13891
13616
13147
12801
12781
12587
12108
12007
12180
12139
11935
11884
12057
12078
11915
11945
11945
11691
11782
12546
14512
18271
22549
26074
27765
27316
24872
18281
12068
10896
11080
11426
12241
12394
12241
12332
12495
12445
12292
12322
12495
12516
12353
12322
12536
12587
12394
12394
12587
12597
12475
12485
12679
12750
12557
12567
12811
12832
12669
12720
12984
13035
12913
12984
13239
13341
13249
13310
13606
13708
13616
13759
14095
14268
14247
14410
14777
14981
15042
15256
15684
15979
16050
16325
16794
17069
17191
17456
17884
18149
18139
18291
18536
18444
18088
17772
17507
17018
16285
15724
15419
14920
14217
13840
13708
13361
12913
12730
12781
12638
12322
12220
12353
12282
12017
11996
12149
12129
11935
11905
12088
12027
11772
11742
11925
11905
11670
11640
11803
11742
11518
11487
11630
11599
11344
11324
11497
11456
11263
11243
11385
11365
11131
11090
11283
11283
11080
11029
11181
11171
10947
10917
11151
11110
10866
10876
11018
10968
10784
10794
10968
10937
10713
10743
10947
10917
10713
10703
10876
10856
10652
10631
10815
10815
10611
10601
10805
10774
10570
10601
10774
10764
10580
10560
10733
10713
10519
10519
10693
10682
10489
10489
10693
10693
10499
10468
10631
10621
10428
10489
10662
10611
10417
10428
10601
10540
10336
10387
10550
10530
10387
10397
10601
10591
10367
10458
10866
11029
10835
10835
11212
11538
11640
11813
12027
12108
11976
11762
11701
11344
10825
10642
10560
10356
10132
10071
10224
10234
10041
10020
10183
10224
9908
9603
9959
10672
11945
15500
20298
23822
25320
24902
23313
17823
10927
8920
9328
9572
9949
10234
10519
10642
10509
10509
10774
10764
10550
10611
10856
10866
10693
10672
10876
10937
10743
10774
10998
10998
10845
10886
11120
11171
11018
11069
11283
11283
11161
11253
11528
11579
11436
11548
11833
11915
11854
11956
12271
12373
12282
12465
12811
12984
12995
13188
13616
13840
13901
14197
14665
14899
14971
15236
15694
16000
16061
16315
16702
16825
16743
16682
16662
16366
15796
15337
14991
14431
13697
13259
13046
12587
12068
11823
11742
11558
11192
11080
11181
11069
10866
10845
10968
10886
10672
10672
10856
10805
10591
10611
10733
10723
10540
10489
10693
10642
10377
10367
10530
10458
10234
10244
10397
10356
10142
10142
10316
10265
10102
10112
10234
10204
10010
9990
10193
10153
9939
9969
10122
10092
9908
9929
10102
10051
9837
9857
10051
10020
9806
9837
10030
10000
9806
9817
10000
10010
9827
9817
9979
9979
9796
9806
10010
9979
9796
9817
10000
9969
9766
9806
9990
9959
9776
9806
10010
9969
9776
9796
9969
9969
9766
9776
9979
9959
9766
9766
9959
9959
9745
9766
9969
9929
9745
9786
9969
9979
9776
9817
10010
10030
10081
10305
10540
10540
10540
10886
11467
11701
11528
11589
11803
11701
11324
10917
10682
10397
9929
9786
9929
9806
9572
9582
9755
9715
9562
9674
9735
9379
9338
10061
11670
14961
19249
23008
25167
24984
23201
17802
10968
8676
8808
9114
9918
10153
10010
10153
10346
10295
10163
10183
10387
10387
10234
10316
10489
10448
10295
10387
10591
10560
10428
10489
10713
10723
10560
10662
10886
10896
10764
10856
11100
11131
11018
11151
11426
11487
11385
11487
11793
11874
11772
11956
12312
12424
12434
12658
13025
13209
13270
13545
14023
14268
14349
14685
15185
15429
15531
15857
16295
16509
16539
16743
17008
16906
16550
16285
16061
15551
14838
14360
14044
13514
12893
12516
12373
12078
11630
11487
11558
11416
11171
11110
11253
11222
11039
11059
11243
11212
11008
11069
11263
11212
11029
11059
11243
11222
11049
11059
11243
11212
11018
11029
11192
11161
10978
11029
11212
11120
10968
11029
11212
11222
11059
11080
11273
11243
11069
11151
11334
11294
11171
11222
11416
11416
11232
11304
11518
11487
11344
11385
11599
11579
11436
11507
11701
11721
11538
11599
11844
11793
11630
11701
11894
11894
11742
11813
12037
12017
11854
11935
12159
12129
11976
12068
12292
12302
12149
12200
12404
12404
12261
12343
12577
12577
12394
12455
12658
12658
12516
12587
12801
12771
12618
12709
12913
12893
12730
12811
13046
13025
12872
12954
13188
13188
13015
13096
13321
13361
13433
13718
14013
14023
14003
14380
14991
15246
15083
15205
15470
15368
15011
14655
14451
14166
13759
13657
13769
13677
13484
13514
13687
13708
13565
13677
13799
13473
13453
14166
15714
18943
23262
27225
29537
29445
27805
22539
15480
12944
13127
13514
14339
14594
14482
14655
14859
14798
14665
14747
14981
14971
14808
14899
15113
15113
14971
15073
15297
15286
15154
15246
15500
15490
15348
15470
15694
15745
15623
15714
16000
16000
15908
16061
16305
16356
16305
16427
16723
16825
16763
16957
17293
17385
17395
17660
18057
18200
18251
18587
19025
19259
19402
19738
20186
20420
20522
20858
21327
21531
21571
21795
22081
21979
21612
21398
21225
20675
19982
19524
19147
18628
17986
17589
17466
17110
16662
16550
16550
16315
16050
16061
16162
16071
15847
15877
16061
15959
15775
15837
15969
15887
15694
15745
15898
15786
15562
15612
15775
15704
15511
15521
15663
15582
15358
15388
15531
15480
15256
15297
15460
15358
15185
15215
15388
15327
15113
15174
15348
15266
15062
15073
15236
15174
15001
15093
15246
15174
14961
15001
15205
15124
14899
14940
15124
15083
14859
14889
15124
15001
14787
14869
15032
14971
14798
14869
15032
14950
14767
14848
15032
14930
14757
14828
15032
14940
14747
14828
14961
14879
14706
14777
14971
14889
14696
14767
14899
14798
14665
14736
14889
14787
14594
14675
14848
14798
14624
14706
14859
14747
14584
14624
14848
14991
14981
15144
15317
15368
15490
15938
16448
16387
16183
16305
16417
16213
15623
15225
15124
14747
14380
14349
14441
14319
14085
14135
14339
14268
14135
14115
13942
13932
14410
15796
19239
23690
27286
29384
29292
27632
22447
15541
13168
13270
13290
13911
14451
14533
14472
14604
14716
14645
14472
14543
14777
14726
14553
14614
14787
14726
14543
14645
14838
14828
14665
14696
14940
14910
14726
14879
15062
15001
14899
15001
15236
15205
15134
15276
15490
15531
15439
15602
15867
15877
15847
16061
16387
16458
16438
16672
17028
17201
17242
17568
18067
18230
18332
18699
19096
19249
19361
19687
20074
20227
20237
20369
20492
20206
19687
19351
19066
18485
17752
17303
16998
16468
15887
15612
15490
15154
14767
14675
14675
14523
14309
14288
14390
14268
14044
14105
14237
14125
13922
13932
14115
14023
13799
13860
13983
13850
13636
13677
13769
13636
13453
13494
13657
13545
13300
13371
13494
13341
13147
13178
13331
13270
13056
13107
13290
13158
12964
13066
13198
13096
12893
12933
13117
13005
12811
12913
13046
12944
12781
12862
13025
12933
12750
12821
13005
12923
12750
12852
13015
12903
12740
12801
12964
12903
12720
12811
12984
12872
12720
12801
12974
12923
12760
12852
13025
12933
12740
12842
13046
12954
12781
12862
13025
12954
12821
12903
13076
13035
12862
12984
13178
13198
13300
13514
13728
13738
13789
14258
14859
14991
14848
15001
15174
15011
14635
14268
14074
13738
13331
13270
13392
13270
13086
13158
13290
13239
13117
13259
13270
12903
13005
13830
15592
19157
23446
27082
28895
28427
26359
20553
14176
12465
12618
13046
13840
13993
13932
14146
14319
14258
14135
14237
14451
14400
14268
14410
14614
14533
14421
14553
14716
14696
14584
14675
14930
14899
14767
14930
15154
15103
15011
15205
15439
15388
15337
15531
15775
15796
15765
15959
16254
16285
16275
16539
16835
16906
16947
17222
17619
17741
17823
18200
18628
18841
18964
19330
19789
19992
20135
20492
20899
21082
21144
21368
21531
21317
20930
20685
20400
19809
19137
18709
18373
17833
17232
16977
16835
16448
16101
16071
16091
15877
15643
15684
15796
15684
15500
15592
15745
15633
15470
15562
15694
15562
15388
15490
15643
15551
15358
15429
15562
15409
15246
15348
15449
15358
15154
15195
15358
15215
15042
15154
15276
15164
15022
15093
15246
15134
14971
15073
15195
15103
14920
15022
15174
15052
14889
14981
15154
15062
14869
14950
15083
14981
14838
14940
15103
15022
14859
14950
15124
15001
14828
14930
15083
15001
14818
14910
15083
15011
14828
14930
15103
14981
14838
14940
15093
15011
14869
14950
15083
14981
14828
14930
15103
14981
14818
14930
15042
14930
14808
14910
15062
14991
14838
14930
15093
14991
14808
14920
15103
14981
14828
14940
15113
15154
15225
15490
15674
15592
15704
16193
16702
16794
16611
16723
16886
16651
16203
15816
15643
15307
14859
14838
14950
14798
14584
14655
14808
14696
14573
14736
14665
14309
14482
15378
17446
21225
25462
28966
30433
29751
27123
20532
14645
13596
13779
14268
15022
15052
14961
15144
15236
15103
15001
15113
15307
15225
15062
15195
15358
15246
15113
15246
15399
15337
15236
15348
15531
15460
15337
15470
15643
15602
15480
15643
15857
15806
15714
15887
16112
16050
16000
16224
16478
16478
16427
16631
16926
16988
16988
17283
17639
17731
17772
18118
18566
18709
18811
19208
19626
19809
19952
20329
20706
20797
20828
21082
21256
21031
20655
20390
20135
19554
18811
18403
18077
17487
16886
16570
16366
15989
15602
15531
15531
15286
15073
15134
15205
15032
14838
14930
15052
14899
14696
14767
14889
14767
14594
14685
14818
14645
14451
14523
14635
14472
14288
14380
14482
14339
14176
14237
14319
14156
14003
14115
14258
14115
13932
14023
14146
14013
13860
13972
14105
13952
13779
13860
13972
13850
13677
13769
13942
13809
13626
13718
13830
13738
13585
13677
13789
13657
13504
13626
13769
13616
13453
13545
13647
13534
13402
13534
13657
13534
13402
13463
13606
13524
13331
13453
13616
13473
13310
13412
13534
13422
13300
13412
13524
13443
13280
13371
13545
13422
13270
13341
13443
13351
13219
13382
13585
13433
13229
13392
13708
13789
13789
13911
14115
14288
14523
15011
15246
15124
15062
15113
15113
14614
14003
13840
13718
13361
13117
13188
13290
13086
12893
13046
13198
13127
12944
12760
12852
13249
14176
17028
21632
25595
27968
28304
27184
22967
15674
12017
12139
12251
12597
13127
13412
13402
13321
13433
13616
13534
13422
13514
13647
13555
13433
13575
13728
13647
13514
13616
13840
13748
13606
13759
13881
13789
13677
13820
14034
13983
13911
14074
14288
14247
14146
14319
14563
14573
14523
14747
14991
14971
14981
15246
15551
15592
15602
15918
16305
16438
16499
16865
17273
17385
17477
17915
18342
18475
18628
18943
19259
19320
19218
19300
19300
18862
18332
17986
17619
16967
16275
15949
15633
15083
14624
14421
14329
13993
13687
13708
13738
13545
13331
13392
13484
13300
13137
13219
13361
13219
13035
13147
13270
13127
12944
12984
13117
12964
12771
12903
13005
12832
12699
12811
12903
12699
12546
12669
12750
12628
12475
12567
12679
12526
12394
12516
12628
12475
12332
12445
12557
12424
12251
12373
12526
12353
12190
12332
12445
12312
12190
12332
12434
12292
12159
12261
12414
12282
12119
12251
12383
12261
12129
12241
12332
12190
12098
12220
12353
12220
12068
12200
12312
12170
12047
12180
12292
12170
12047
12190
12312
12149
12037
12180
12282
12159
12037
12190
12343
12200
12098
12404
12740
12709
12628
12862
13249
13473
13708
13972
14095
14054
13911
13881
13697
13086
12658
12536
12434
12220
12007
12098
12190
12027
11905
12057
12231
12108
11711
11650
12200
12944
14981
19249
23670
26603
27418
26776
23945
16835
11456
11120
11528
11823
12271
12506
12740
12699
12516
12689
12842
12709
12608
12750
12913
12832
12720
12862
13005
12862
12781
12944
13107
12995
12903
13096
13249
13127
13025
13219
13412
13290
13249
13463
13606
13565
13545
13779
14013
14003
13962
14227
14502
14451
14533
14848
15134
15215
15276
15643
16030
16112
16254
16662
17100
17252
17385
17813
18200
18332
18475
18831
19137
19096
18974
18943
18801
18291
17680
17364
16998
16325
15704
15399
15164
14696
14278
14207
14166
13881
13687
13708
13738
13616
13463
13596
13748
13575
13443
13606
13748
13616
13484
13657
13789
13657
13534
13677
13789
13657
13555
13687
13799
13647
13545
13687
13809
13667
13575
13769
13891
13779
13677
13820
13962
13850
13748
13901
14064
13942
13860
14034
14156
14023
13942
14135
14278
14166
14074
14247
14410
14278
14197
14390
14523
14380
14319
14502
14624
14512
14431
14624
14767
14655
14563
14736
14910
14787
14696
14910
15042
14930
14848
15032
15174
15032
14961
15174
15317
15195
15134
15317
15439
15337
15246
15419
15592
15470
15358
15551
15714
15572
15521
15714
15857
15755
15663
15857
16010
15908
16020
16468
16682
16560
16580
17028
17558
17813
17833
18016
18200
18006
17802
17599
17283
16886
16529
16468
16478
16285
16173
16346
16448
16295
16213
16438
16621
16213
15898
16488
17507
19554
23547
28090
31381
32175
31340
28457
21480
16101
15521
15969
16580
16998
16988
17252
17436
17263
17191
17405
17548
17436
17334
17527
17680
17558
17477
17650
17792
17690
17609
17813
17976
17843
17762
17945
18077
17986
17925
18118
18291
18220
18159
18373
18587
18515
18495
18750
18954
18933
18954
19229
19473
19463
19534
19840
20155
20196
20288
20706
21052
21174
21327
21724
22132
22233
22417
22845
23191
23293
23435
23761
23955
23802
23558
23456
23232
22610
21979
21653
21215
20563
20003
19687
19432
18984
18607
18536
18475
18149
17915
18027
18037
17802
17670
17782
17843
17670
17538
17670
17731
17548
17426
17538
17589
17395
17263
17395
17477
17273
17140
17273
17334
17130
17008
17120
17161
16998
16876
16967
17069
16886
16733
16886
16947
16784
16692
16804
16896
16702
16590
16753
16835
16672
16519
16631
16743
16560
16438
16560
16631
16468
16346
16519
16600
16387
16305
16458
16519
16336
16213
16387
16458
16254
16173
16325
16407
16244
16112
16264
16325
16152
16061
16193
16275
16091
15959
16132
16203
16030
15949
16030
16112
15989
15887
16050
16142
15938
15806
15959
16071
15908
15786
15959
16020
15857
15735
15847
15969
15806
15704
15877
15989
15949
16050
16325
16417
16315
16468
17039
17497
17436
17314
17497
17578
17252
16794
16519
16295
15816
15490
15531
15541
15358
15164
15246
15348
15185
15113
15276
15124
14777
15083
16183
18658
22834
26990
29924
30586
29405
25839
18892
14390
13952
14064
14706
15297
15246
15256
15490
15531
15348
15286
15470
15551
15399
15317
15460
15562
15409
15337
15511
15602
15460
15388
15551
15633
15490
15439
15653
15714
15562
15541
15745
15898
15796
15755
15969
16101
16020
15979
16193
16376
16264
16295
16631
16814
16743
16794
17161
17415
17436
17558
17904
18200
18291
18485
18954
19300
19341
19483
19901
20217
20298
20400
20634
20665
20369
20023
19789
19412
18750
18149
17782
17334
16713
16213
15989
15714
15276
15011
14950
14879
14604
14400
14482
14482
14237
14135
14258
14309
14115
13962
14095
14156
13922
13799
13911
13911
13738
13616
13677
13738
13545
13371
13453
13514
13331
13229
13351
13382
13178
13076
13219
13239
13046
12893
13035
13137
12913
12781
12923
12974
12781
12699
12842
12883
12730
12608
12730
12781
12577
12516
12679
12720
12526
12445
12567
12638
12475
12343
12455
12536
12343
12220
12373
12434
12261
12170
12343
12373
12170
12078
12241
12302
12129
12057
12200
12271
12078
11976
12170
12200
11996
11884
12047
12139
11966
11884
12057
12119
11925
11844
11996
12057
11935
12007
12373
12516
12363
12394
12852
13361
13463
13433
13626
13697
13463
13270
13086
12679
12170
11803
11793
11752
11497
11406
11507
11548
11375
11294
11518
11507
11029
10957
11732
13066
15938
20329
24159
26237
26053
24698
20471
13504
10153
10153
10550
11151
11365
11436
11711
11905
11701
11589
11823
11935
11793
11742
11925
12027
11854
11793
12027
12098
11915
11864
12088
12190
12047
12027
12241
12373
12231
12180
12424
12557
12445
12465
12709
12852
12771
12791
13025
13198
13137
13168
13473
13677
13636
13728
14095
14349
14349
14482
14859
15185
15276
15449
15908
16213
16295
16499
16916
17273
17303
17415
17762
17874
17599
17334
17161
16835
16193
15572
15266
14869
14207
13718
13545
13280
12811
12536
12536
12465
12139
11976
12119
12098
11844
11762
11925
11986
11793
11691
11823
11844
11650
11589
11721
11752
11569
11446
11558
11599
11406
11283
11426
11487
11263
11161
11334
11385
11171
11049
11222
11304
11080
10927
11069
11141
10947
10866
11018
11049
10866
10815
10978
11029
10835
10754
10947
10998
10805
10713
10866
10937
10764
10672
10845
10896
10693
10642
10815
10896
10713
10621
10794
10835
10662
10601
10794
10876
10672
10591
10754
10794
10621
10560
10693
10774
10631
10570
10743
10794
10621
10550
10713
10794
10601
10540
10723
10774
10591
10530
10713
10743
10570
10540
10733
10886
10896
11018
11263
11334
11324
11579
12129
12455
12312
12261
12465
12485
12119
11599
11365
11171
10723
10448
10530
10550
10326
10224
10387
10448
10295
10295
10326
10102
10132
10794
12475
15959
20196
23751
25727
25534
23670
17986
11294
9328
9450
9684
10489
10825
10693
10743
10937
10947
10805
10774
10957
11039
10876
10886
11090
11151
10968
10937
11171
11222
11069
11059
11263
11344
11212
11212
11426
11518
11395
11406
11630
11772
11630
11640
11925
12027
11945
11976
12241
12445
12373
12445
12801
12995
12984
13117
13453
13728
13809
13962
14380
14716
14798
15022
15460
15796
15898
16081
16539
16825
16825
16916
17120
17079
16641
16244
16000
15572
14899
14309
13952
13524
12903
12475
12373
12170
11742
11487
11558
11487
11181
11080
11192
11192
10998
10886
11039
11080
10876
10815
10968
10968
10774
10733
10886
10886
10703
10621
10774
10815
10550
10479
10631
10631
10438
10326
10479
10530
10336
10244
10407
10428
10204
10173
10356
10356
10163
10112
10285
10305
10112
10030
10214
10265
10030
10000
10193
10204
10020
9959
10142
10183
10000
9939
10092
10132
9949
9867
10051
10122
9918
9857
10041
10081
9908
9888
10061
10092
9929
9898
10041
10102
9929
9847
10030
10092
9908
9878
10041
10071
9888
9827
10020
10092
9908
9867
10030
10051
9888
9857
10041
10102
9898
9847
10102
10122
9908
9898
10081
10193
10234
10397
10652
10682
10631
10947
11518
11813
11660
11609
11833
11833
11456
10968
10754
10550
10071
9827
9929
9918
9684
9562
9776
9827
9603
9654
9684
9429
9460
10081
11752
15205
19442
23181
25340
25187
23334
17548
10703
8676
8818
9083
9918
10163
10020
10112
10265
10265
10092
10071
10285
10336
10183
10142
10367
10417
10224
10204
10407
10458
10316
10305
10499
10580
10407
10428
10662
10693
10570
10621
10876
10978
10845
10856
11110
11212
11120
11222
11497
11630
11579
11670
11945
12129
12119
12241
12638
12913
12944
13147
13596
13891
13972
14176
14655
14961
15042
15286
15704
15979
16010
16091
16336
16275
15867
15521
15225
14838
14176
13565
13249
12791
12149
11711
11599
11385
10957
10723
10774
10652
10336
10265
10417
10377
10173
10122
10255
10275
10071
9979
10132
10142
9949
9888
10051
10020
9796
9755
9878
9898
9725
9613
9755
9817
9613
9511
9643
9643
9399
9328
9531
9572
9368
9317
9470
9480
9287
9236
9409
9460
9266
9195
9358
9358
9144
9083
9287
9317
9083
9042
9236
9277
9114
9063
9226
9246
9032
8971
9154
9216
9022
8930
9114
9175
8971
8930
9134
9154
8991
8930
9042
9093
8930
8890
9093
9124
8920
8920
9093
9114
8951
8849
9012
9093
8910
8890
9093
9083
8859
8828
9032
9093
8900
8818
9002
9103
9144
9307
9531
9572
9541
9888
10468
10733
10591
10580
10754
10703
10346
9929
9674
9389
8981
8808
8890
8828
8604
8574
8808
8890
8665
8645
8696
8411
8329
9002
10703
14288
18617
22040
23904
23588
21765
16325
9745
7708
7688
7912
8716
9073
9053
9134
9379
9419
9256
9256
9491
9521
9419
9460
9633
9674
9531
9491
9725
9827
9643
9613
9847
9949
9817
9827
10051
10153
10020
10051
10275
10356
10265
10295
10550
10662
10580
10682
10968
11049
10968
11059
11375
11589
11548
11670
12057
12322
12373
12567
13035
13300
13371
13657
14105
14380
14441
14665
15113
15419
15419
15551
15816
15735
15358
15042
14777
14329
13667
13168
12903
12506
11976
11660
11538
11314
10927
10774
10876
10805
10560
10499
10672
10713
10519
10489
10682
10733
10560
10519
10754
10794
10591
10601
10835
10805
10611
10631
10835
10845
10672
10662
10856
10906
10723
10693
10927
10978
10805
10835
11069
11069
10876
10896
11151
11232
11069
11059
11294
11344
11171
11202
11426
11467
11324
11355
11558
11650
11528
11528
11782
11833
11670
11721
11956
11986
11833
11854
12078
12180
12027
12047
12292
12322
12200
12251
12434
12506
12383
12383
12648
12720
12536
12577
12781
12832
12699
12720
12964
13015
12852
12883
13107
13168
13035
13056
13331
13371
13259
13514
13932
14054
13911
14074
14635
15083
15225
15286
15500
15592
15409
15286
15164
14736
14278
14064
14064
14034
13850
13799
13972
13993
13850
13881
14166
14146
13667
13728
14563
15857
18658
22967
27082
29506
29445
28233
23843
16600
13270
13473
14003
14665
14838
14869
15215
15307
15113
15134
15337
15419
15307
15307
15531
15592
15439
15480
15724
15775
15623
15663
15887
15949
15806
15857
16101
16183
16061
16122
16397
16417
16315
16438
16692
16794
16713
16784
17100
17212
17130
17273
17578
17741
17752
17904
18302
18515
18546
18831
19239
19504
19626
19880
20359
20655
20716
21001
21480
21724
21795
22009
22315
22315
21989
21755
21612
21194
20512
19972
19626
19137
18465
18027
17843
17538
17079
16845
16886
16743
16417
16325
16478
16427
16193
16183
16366
16336
16142
16122
16275
16285
16091
16050
16224
16203
15989
15938
16112
16101
15867
15857
16010
15959
15735
15694
15816
15796
15612
15582
15755
15714
15480
15480
15653
15653
15439
15388
15582
15592
15378
15348
15511
15521
15348
15307
15490
15480
15276
15286
15419
15419
15236
15225
15449
15409
15195
15195
15358
15368
15164
15154
15348
15337
15134
15113
15297
15297
15103
15093
15276
15276
15083
15093
15266
15246
15062
15073
15236
15225
15052
15052
15215
15174
15001
15052
15195
15195
15001
14940
15164
15195
14981
14961
15144
15124
14950
14940
15103
15113
14950
14930
15185
15399
15399
15480
