# aauwss ecg epoch, one sample per line
# source AAUWSS (Aalborg University Wearable Sleep Study) v1.1, Zenodo 10.5281/zenodo.16919071
# licence CC-BY-4.0 - Djanian S, Nielsen T D, Nielsen S H, Bruun A (2025)
# subject 05
# fs_hz 200.0
# samples 6000
# scale 0.1  (value = count * scale, arbitrary published units, NOT mV)
# source_row 418 of 836
# stage_label N1
# epoch 419.0
65641
65543
65238
65346
65641
65489
65175
65301
65606
65516
65211
65328
65633
65507
65202
65292
65579
65471
65166
65283
65606
65471
65157
65283
65570
65435
65157
65274
65543
65417
65086
65211
65570
65444
65131
65274
65552
65435
65175
65292
65570
65435
65086
65148
65471
65399
65077
65211
65399
65211
64978
65068
65489
65489
65274
65624
65928
65695
65426
65561
65686
65364
65086
65319
65579
65426
65131
65211
65543
65453
65095
65211
65561
65444
65157
65274
65597
65453
65122
65310
65695
65704
65390
65310
65713
66269
67587
71110
75906
80729
81590
75906
69998
65857
63311
63669
64521
65050
65382
65901
66565
66430
66063
66269
66646
66556
66305
66457
66789
66780
66565
66762
67112
66995
66807
67040
67381
67345
67103
67282
67650
67623
67416
67605
68089
68170
67990
68250
68707
68743
68645
68958
69487
69622
69559
69980
70554
70742
70778
71253
71908
72105
72141
72562
73136
73315
73208
73459
73862
73683
73136
72840
72661
72006
71119
70626
70294
69613
68842
68546
68465
68008
67479
67390
67533
67336
66968
67040
67318
67148
66807
66950
67273
67210
66941
67049
67372
67291
67031
67165
67524
67479
67219
67372
67730
67623
67282
67470
67847
67703
67408
67569
67901
67892
67614
67703
68035
67927
67614
67766
68125
67945
67650
67793
68089
67990
67730
67847
68125
67999
67721
67883
68214
68098
67766
67901
68268
68134
67820
67990
68295
68152
67838
67963
68304
68205
67892
67972
68313
68214
67927
68107
68358
68250
67963
68071
68403
68268
67981
68152
68474
68349
68053
68152
68456
68385
68089
68205
68537
68394
68080
68214
68510
68376
68071
68223
68564
68438
68116
68223
68510
68403
68134
68250
68501
68385
68116
68241
68519
68295
67972
68116
68438
68447
68205
68483
68958
68761
68340
68501
68815
68465
68017
68214
68528
68412
68098
68152
68456
68349
67999
68116
68474
68367
68017
68152
68438
68304
68008
68170
68519
68474
68232
68277
68447
68510
68958
70814
74570
78900
83275
83705
77986
72141
67990
66197
66834
67130
67506
68187
68824
69039
68663
68734
69138
69057
68788
68949
69281
69183
68905
69057
69407
69317
69048
69209
69568
69487
69245
69425
69765
69711
69505
69694
70079
70079
69855
70070
70527
70536
70366
70644
71119
71200
71119
71451
71997
72168
72141
72535
73163
73360
73324
73710
74248
74382
74274
74499
74893
74776
74301
74086
73970
73324
72365
71845
71549
70814
69927
69550
69407
68896
68277
68098
68205
67963
67479
67470
67712
67542
67192
67228
67515
67363
67031
67157
67434
67327
67004
67103
67425
67300
66977
67067
67390
67291
66968
67067
67381
67237
66923
67049
67318
67210
66897
66968
67273
67130
66798
66906
67201
67049
66681
66771
67067
66906
66601
66699
66932
66798
66475
66538
66834
66717
66368
66448
66744
66601
66269
66368
66654
66502
66170
66278
66565
66439
66099
66170
66484
66359
66009
66126
66421
66269
65928
66027
66305
66188
65875
65955
66242
66117
65794
65875
66152
66036
65731
65803
66117
66009
65659
65749
66036
65919
65615
65704
65991
65884
65561
65650
65946
65803
65453
65552
65892
65776
65408
65507
65821
65713
65364
65462
65794
65668
65337
65417
65731
65624
65292
65390
65695
65579
65238
65355
65597
65453
65175
65256
65543
65364
64996
65122
65364
65346
65131
65301
65848
65704
65328
65552
65848
65552
65032
65157
65471
65319
65005
65086
65408
65292
64951
65059
65382
65256
64942
65050
65328
65211
64915
65023
65355
65301
65113
65229
65337
65211
65292
66610
69658
73737
78954
82818
79725
72795
67157
63902
63840
64431
64745
65364
65928
66036
65659
65713
66036
65973
65740
65866
66215
66126
65857
66018
66368
66323
66036
66197
66574
66502
66242
66421
66798
66771
66538
66708
67103
67139
66914
67121
67596
67596
67443
67721
68178
68286
68196
68546
69129
69308
69317
69711
70330
70590
70608
71029
71648
71818
71764
72087
72544
72526
72222
72150
72105
71576
70671
70142
69846
69093
68161
67703
67515
66968
66287
66081
66135
65839
65364
65319
65543
65390
65014
65095
65399
65256
64933
65041
65355
65247
64960
65077
65382
65292
64978
65095
65426
65346
65032
65157
65489
65364
65059
65175
65498
65399
65086
65193
65471
65346
65059
65166
65453
65346
65023
65131
65435
65292
64987
65095
65364
65265
64960
65032
65328
65211
64897
64987
65292
65202
64879
64969
65283
65175
64844
64924
65265
65139
64817
64924
65220
65104
64808
64915
65193
65113
64808
64888
65211
65077
64763
64879
65175
65113
64808
64897
65202
65095
64781
64915
65238
65113
64790
64888
65202
65104
64817
64897
65193
65122
64772
64888
65238
65122
64808
64924
65220
65113
64817
64906
65229
65148
64835
64924
65238
65131
64826
64978
65256
65139
64844
64924
65274
65175
64844
64960
65238
65131
64853
64960
65265
65157
64844
64951
65265
65157
64835
64951
65247
65148
64862
64951
65265
65166
64835
64951
65229
65095
64835
64924
65229
65050
64637
64799
65086
65050
64879
65059
65570
65471
65068
65274
65624
65355
64844
64951
65292
65175
64871
64951
65247
65157
64817
64906
65238
65148
64844
64942
65247
65175
64879
64951
65283
65247
64942
65175
65525
65202
64862
65364
66914
69649
73602
79322
83248
79492
72374
67157
64171
63759
64073
64799
65686
65875
65767
65830
66108
66000
65713
65875
66233
66188
65910
66045
66421
66377
66081
66242
66628
66583
66323
66457
66852
66825
66583
66735
67103
67130
66906
67121
67569
67569
67399
67623
68080
68223
68080
68358
68923
69084
69039
69434
70070
70312
70312
70707
71343
71576
71549
71917
72437
72473
72266
72383
72589
72177
71397
70949
70644
69936
68985
68456
68196
67596
66825
66466
66466
66072
65507
65471
65659
65453
65104
65148
65355
65211
64906
64978
65319
65220
64879
64978
65265
65211
64879
64978
65337
65229
64915
64996
65346
65319
64969
65041
65382
65274
64951
65041
65337
65247
64915
64987
65364
65274
64888
64951
65265
65157
64844
64906
65175
65104
64781
64844
65166
65032
64664
64754
65068
64987
64628
64718
65050
64933
64620
64718
64987
64879
64593
64637
64915
64853
64539
64628
64951
64826
64503
64539
64897
64871
64449
64530
64862
64745
64440
64530
64826
64718
64404
64476
64808
64736
64377
64494
64853
64709
64377
64449
64736
64700
64377
64467
64790
64646
64351
64449
64763
64673
64306
64395
64700
64655
64360
64386
64727
64646
64297
64360
64682
64628
64324
64395
64664
64602
64288
64351
64727
64655
64315
64386
64673
64566
64288
64440
64745
64620
64342
64422
64709
64691
64395
64422
64763
64709
64413
64476
64620
64584
64377
64422
64879
64969
64853
65068
65292
65166
64924
64951
65068
65005
64826
64888
65193
65104
64790
64942
65265
65148
64853
64996
65382
65319
64996
65175
65552
65462
65193
65319
65740
65794
65498
65435
65821
66403
67408
70554
75117
79608
81132
76309
70420
66430
63732
63777
64584
65193
65641
66161
67013
67031
66654
66843
67264
67318
67094
67237
67614
67596
67354
67515
67927
67945
67694
67820
68223
68250
68026
68178
68618
68672
68438
68645
69084
69147
68976
69200
69694
69801
69667
69927
70491
70680
70581
70931
71549
71764
71764
72177
72822
73082
73082
73441
74050
74248
74131
74364
74741
74642
74149
73916
73826
73217
72311
71737
71469
70841
69945
69532
69443
69030
68403
68223
68367
68152
67730
67730
68017
67883
67515
67578
67892
67829
67506
67560
67892
67847
67515
67578
67901
67847
67533
67605
67954
67883
67542
67632
67945
67883
67560
67623
67963
67883
67542
67614
67919
67829
67515
67578
67883
67802
67434
67479
67793
67703
67363
67381
67659
67605
67300
67345
67650
67578
67219
67237
67542
67479
67130
67174
67497
67425
67058
67112
67425
67336
67022
67058
67363
67291
66950
66995
67291
67228
66897
66941
67237
67148
66825
66870
67174
67121
66789
66825
67121
67058
66717
66753
67067
66986
66663
66699
66986
66932
66592
66654
66977
66870
66538
66592
66914
66852
66511
66547
66861
66789
66457
66484
66789
66735
66403
66448
66762
66708
66377
66412
66717
66646
66305
66350
66681
66619
66278
66323
66628
66547
66215
66269
66592
66511
66170
66206
66529
66484
66135
66161
66421
66350
66054
66090
66386
66233
65875
65910
66215
66287
66027
66224
66726
66583
66251
66395
66681
66430
65910
66018
66350
66242
65910
65910
66233
66206
65866
65875
66224
66161
65812
65857
66161
66135
65830
65901
66341
66359
65919
65857
66430
67291
69012
72670
77995
83024
82495
76283
70438
66170
64306
64862
65785
66269
66278
66601
66906
66753
66448
66484
66888
66906
66583
66663
67031
67022
66708
66789
67174
67165
66897
66986
67345
67354
67076
67183
67569
67614
67390
67488
67892
67945
67730
67883
68358
68465
68304
68528
69039
69200
69093
69389
69980
70240
70222
70545
71191
71486
71451
71773
72365
72553
72419
72598
72966
72894
72401
72096
71953
71352
70420
69819
69505
68887
67981
67506
67399
66968
66341
66108
66215
65991
65570
65525
65722
65650
65301
65274
65606
65534
65175
65229
65534
65489
65166
65193
65525
65498
65166
65220
65525
65480
65184
65220
65534
65507
65157
65175
65516
65462
65131
65157
65453
65417
65086
65104
65408
65328
64951
65005
65337
65238
64915
64942
65238
65211
64879
64906
65220
65139
64790
64844
65157
65077
64736
64781
65113
65050
64700
64745
65050
65014
64691
64691
65014
64969
64620
64637
64969
64924
64557
64602
64933
64871
64548
64584
64915
64871
64512
64557
64879
64799
64494
64539
64844
64808
64485
64476
64790
64799
64431
64440
64790
64727
64413
64440
64727
64700
64386
64395
64718
64691
64360
64386
64700
64664
64306
64333
64691
64628
64261
64297
64611
64584
64243
64252
64584
64548
64234
64261
64557
64530
64162
64198
64566
64494
64135
64180
64503
64458
64126
64126
64449
64440
64091
64082
64422
64369
64028
64010
64315
64297
63965
63956
64171
64126
63840
63831
64243
64324
64144
64261
64449
64413
64207
64162
64252
64109
63831
63813
64100
64082
63687
63723
64073
64001
63669
63687
63992
63974
63615
63624
63956
63938
63651
63723
64162
64135
63589
63589
64413
65624
68161
72607
78470
81930
77923
71065
66144
62836
62091
62710
63571
64073
64046
64270
64521
64440
64162
64189
64548
64575
64261
64315
64709
64700
64386
64458
64817
64835
64539
64620
65005
65032
64754
64853
65256
65319
65059
65131
65552
65650
65435
65552
66009
66161
65973
66152
66681
66879
66771
67022
67605
67865
67838
68143
68788
69102
69048
69326
69918
70115
69971
70097
70420
70321
69756
69425
69263
68636
67694
67076
66780
66197
65337
64853
64736
64360
63750
63517
63624
63454
63024
62934
63194
63131
62764
62737
63024
62979
62656
62656
62970
62988
62638
62647
62943
62916
62638
62656
62979
62961
62602
62576
62916
62934
62602
62611
62943
62898
62540
62513
62818
62809
62468
62477
62800
62764
62414
62360
62674
62692
62307
62316
62611
62558
62289
62244
62549
62558
62163
62127
62450
62441
62065
62083
62441
62396
62047
62029
62298
62307
61993
61966
62262
62244
61921
61912
62199
62154
61849
61894
62208
62154
61796
61849
62190
62172
61823
61778
62074
62056
61733
61742
62118
62109
61724
61742
62065
61993
61670
61706
62002
61966
61625
61616
61975
61993
61643
61607
61948
61939
61589
61607
61921
61903
61589
61572
61876
61894
61563
61554
61894
61876
61491
61518
61894
61849
61536
61563
61849
61876
61518
61482
61849
61858
61500
61464
61742
61688
61329
61285
61697
61840
61482
61527
61948
62109
61885
61885
62154
62047
61580
61365
61679
61742
61347
61303
61652
61688
61338
61365
61706
61697
61392
61374
61670
61661
61374
61338
61697
61787
61518
61616
61849
61706
61760
62683
65283
69209
73333
77080
75305
68564
63373
60218
59546
60074
60200
60971
61832
62325
62253
62127
62459
62549
62369
62387
62692
62800
62549
62629
62961
62979
62737
62782
63194
63275
63006
63060
63445
63526
63257
63311
63768
63902
63687
63777
64171
64342
64198
64324
64826
65032
64906
65122
65686
65955
65946
66224
66879
67148
67067
67425
68107
68367
68286
68546
69030
69165
68923
68842
68994
68663
67838
67318
67049
66412
65480
64879
64655
64180
63427
63051
63078
62836
62334
62190
62387
62316
61903
61849
62172
62172
61823
61796
62145
62145
61840
61849
62163
62172
61867
61885
62226
62253
61921
61903
62262
62280
61939
61939
62271
62280
61948
61948
62307
62325
61966
61957
62316
62280
61930
61939
62244
62253
61921
61912
62244
62235
61903
61894
62217
62226
61894
61894
62226
62208
61876
61894
62217
62217
61903
61885
62244
62235
61876
61894
62208
62190
61894
61921
62235
62253
61921
61903
62253
62253
61921
61912
62244
62262
61939
61912
62244
62253
61921
61912
62208
62235
61948
61921
62217
62262
61966
61957
62280
62298
61984
61984
62280
62289
62029
62002
62298
62334
62011
62002
62325
62351
62029
62020
62360
62387
62091
62029
62351
62378
61948
61876
62217
62325
62118
62100
62468
62594
62342
62423
62827
62818
62441
62414
62567
62450
62199
62163
62468
62504
62172
62154
62468
62477
62163
62172
62513
62513
62217
62217
62540
62611
62342
62441
62827
62701
62334
62737
64153
66619
70258
75413
80003
77672
70518
65077
61876
61114
61410
61948
62862
63266
63257
63257
63508
63571
63275
63311
63714
63759
63472
63517
63893
63956
63669
63723
64109
64198
63938
63992
64431
64494
64225
64270
64673
64817
64575
64646
65095
65256
65086
65193
65677
65839
65695
65910
66439
66708
66637
66861
67524
67865
67820
68161
68815
69129
69120
69344
69900
70133
69936
69953
70213
70034
69389
68896
68672
68080
67130
66502
66233
65704
64888
64449
64440
64135
63562
63391
63571
63472
63078
62970
63248
63257
62898
62862
63203
63230
62925
62889
63221
63284
62952
62934
63266
63302
63024
63006
63329
63364
63060
63051
63373
63364
63042
63033
63373
63418
63069
63033
63355
63373
63042
62988
63329
63347
63015
63006
63302
63302
62961
62943
63257
63266
62934
62907
63230
63248
62907
62862
63203
63239
62925
62889
63194
63230
62907
62845
63158
63221
62898
62853
63176
63203
62880
62862
63158
63176
62871
62827
63149
63167
62845
62827
63158
63212
62880
62827
63167
63221
62880
62836
63149
63176
62853
62845
63176
63194
62880
62862
63185
63221
62880
62836
63194
63230
62898
62853
63167
63194
62871
62871
63176
63203
62889
62889
63221
63230
62934
62907
63230
63275
62934
62925
63230
63248
62961
62862
63104
63104
62827
62970
63320
63329
63113
63167
63589
63660
63347
63275
63535
63427
62943
62961
63302
63302
63006
62961
63257
63284
62979
62970
63293
63329
63033
62997
63320
63391
63087
63051
63463
63669
63338
63122
63490
64028
65095
68178
72984
78542
81159
76695
70213
65301
62011
61805
62647
63284
63526
63858
64458
64395
64028
64064
64440
64548
64279
64261
64646
64727
64440
64467
64826
64942
64691
64664
65077
65202
64951
64996
65364
65489
65256
65301
65740
65875
65704
65794
66224
66457
66287
66386
66914
67183
67058
67246
67829
68134
68143
68412
69012
69398
69389
69631
70240
70545
70464
70608
71038
71110
70707
70447
70402
69953
69075
68438
68143
67578
66708
66135
65973
65633
64960
64646
64736
64602
64180
63992
64225
64234
63884
63804
64082
64135
63822
63777
64091
64144
63831
63786
64126
64207
63893
63831
64171
64225
63911
63866
64171
64243
63920
63858
64189
64261
63911
63813
64135
64189
63866
63786
64064
64100
63777
63705
64019
64073
63714
63651
63956
63983
63687
63589
63875
63947
63607
63535
63866
63911
63571
63508
63822
63866
63553
63481
63795
63840
63490
63436
63741
63804
63463
63391
63705
63741
63427
63364
63651
63705
63382
63320
63615
63678
63373
63320
63642
63678
63329
63275
63571
63633
63320
63239
63553
63607
63275
63203
63535
63580
63248
63185
63481
63535
63239
63158
63454
63508
63158
63087
63418
63490
63149
63069
63373
63418
63104
63024
63338
63427
63113
63006
63266
63275
62952
62845
63087
63051
62791
62880
63149
63212
62997
63096
63553
63571
63239
63149
63391
63275
62800
62800
63140
63167
62827
62710
63024
63113
62782
62692
63042
63122
62800
62683
62988
63104
62791
62737
63113
63293
62979
62719
63024
63607
64485
67264
71818
76955
79895
75906
69335
64682
61312
60827
61742
62396
62719
63015
63696
63804
63418
63400
63732
63875
63598
63526
63902
64019
63723
63687
64073
64216
63938
63902
64270
64386
64135
64117
64476
64637
64422
64440
64853
65032
64817
64835
65292
65516
65355
65435
65910
66206
66135
66260
66816
67192
67192
67399
67999
68421
68421
68627
69200
69478
69362
69541
70034
70115
69685
69389
69308
68923
68017
67318
67022
66439
65507
64933
64817
64440
63741
63400
63463
63373
62943
62728
62979
62997
62594
62450
62737
62836
62513
62441
62764
62845
62513
62378
62737
62809
62495
62459
62737
62827
62540
62468
62782
62818
62477
62423
62746
62827
62477
62369
62701
62764
62477
62387
62665
62728
62334
62217
62495
62594
62307
62181
62468
62576
62190
62074
62414
62441
62127
62091
62405
62486
62145
62038
62325
62387
62100
61984
62262
62342
62020
61948
62235
62334
62029
61921
62271
62342
61993
61885
62190
62262
61948
61867
62181
62280
61948
61858
62172
62271
61984
61867
62145
62253
61939
61823
62145
62253
61948
61832
62118
62199
61903
61832
62145
62244
61930
61832
62154
62280
61948
61823
62118
62217
61912
61751
62020
62065
61832
61930
62217
62307
62118
62118
62549
62683
62316
62154
62378
62262
61894
61894
62190
62271
61939
61814
62154
62253
61948
61840
62163
62307
61966
61885
62226
62316
62002
61939
62307
62513
62307
62100
62235
62674
63302
65364
69487
74185
78228
76820
70500
65390
61527
60137
60908
61347
61760
62190
62907
63248
62836
62773
63149
63302
63060
62988
63347
63490
63212
63167
63499
63651
63409
63338
63714
63893
63651
63624
63974
64144
63947
63902
64288
64521
64324
64342
64772
64996
64835
64915
65390
65686
65570
65713
66278
66646
66619
66762
67363
67811
67802
67972
68546
68905
68797
68869
69326
69460
69057
68752
68734
68367
67479
66816
66520
65991
65113
64467
64288
63956
63284
62889
62988
62898
62414
62199
62423
62441
62100
61966
62217
62334
62029
61876
62208
62307
61993
61903
62181
62307
62002
61903
62199
62280
61993
61912
62235
62334
62020
61903
62190
62325
61993
61858
62181
62253
61921
61814
62083
62145
61858
61733
61993
62083
61760
61625
61930
62011
61697
61572
61849
61948
61652
61545
61814
61921
61598
61455
61787
61876
61554
61410
61706
61840
61509
61365
61670
61796
61455
61338
61652
61742
61455
61329
61607
61697
61365
61258
61563
61688
61392
61240
61518
61643
61347
61213
61518
61634
61312
61195
61500
61589
61276
61159
61473
61589
61276
61150
61437
61563
61267
61141
61446
61509
61186
61105
61401
61509
61222
61078
61383
61518
61195
61061
61383
61482
61159
61043
61356
61464
61168
61061
61329
61428
61150
61034
61321
61374
60962
60845
61159
61276
61087
61087
61563
61742
61329
61267
61634
61679
61150
60917
61303
61401
61105
60980
61258
61401
61070
60935
61258
61374
61087
60962
61249
61374
61078
60980
61329
61589
61338
61070
61303
61679
62298
64422
68546
73826
78380
76892
70509
64942
60657
59357
60263
60980
61365
61589
62190
62351
61966
61867
62190
62387
62127
62074
62423
62558
62316
62244
62585
62773
62540
62450
62809
63024
62773
62719
63096
63275
63078
63033
63418
63660
63463
63454
63911
64162
63983
64028
64494
64826
64772
64871
65426
65857
65848
66009
66619
67058
67085
67282
67856
68241
68187
68250
68707
68932
68600
68286
68286
67999
67139
66412
66099
65606
64700
64001
63813
63517
62791
62360
62423
62325
61903
61652
61832
61903
61554
61419
61688
61805
61527
61401
61679
61805
61509
61383
61697
61840
61554
61437
61742
61885
61598
61464
61769
61921
61607
61482
61796
61912
61598
61491
61769
61867
61580
61428
61733
61849
61527
61401
61652
61778
61500
61356
61634
61751
61455
61312
61598
61724
61419
61321
61589
61688
61392
61276
61589
61706
61419
61285
61580
61697
61401
61276
61527
61679
61410
61258
61545
61688
61374
61249
61563
61670
61383
61267
61545
61661
61392
61276
61563
61697
61401
61267
61563
61697
61392
61285
61580
61679
61392
61258
61580
61715
61401
61267
61554
61706
61419
61267
61580
61751
61455
61338
61616
61724
61464
61329
61616
61760
61473
61347
61625
61778
61482
61347
61679
61805
61455
61347
61670
61787
61500
61240
61527
61742
61410
61392
61814
62109
61903
61616
61921
62181
61858
61473
61643
61903
61598
61428
61724
61832
61563
61464
61751
61894
61607
61464
61796
61957
61643
61509
61840
62029
61832
61796
61975
61957
61832
62450
64682
68519
73172
78362
79088
73073
66619
62118
60460
60926
61123
61643
62414
62862
62710
62468
62773
62970
62719
62656
62988
63140
62898
62809
63140
63355
63122
63006
63347
63544
63355
63275
63615
63840
63615
63562
63956
64198
63992
63956
64369
64646
64485
64494
64942
65247
65148
65220
65740
66152
66135
66242
66861
67318
67309
67479
68062
68528
68519
68618
69111
69380
69209
69093
69191
69012
68340
67676
67363
66914
66000
65238
65005
64628
63866
63347
63302
63203
62746
62441
62620
62656
62271
62065
62316
62450
62172
62020
62235
62387
62145
62011
62316
62450
62199
62091
62342
62522
62244
62100
62423
62576
62289
62127
62405
62594
62271
62083
62387
62540
62217
62065
62369
62504
62181
62029
62298
62459
62181
61993
62262
62387
62091
61948
62235
62351
62029
61894
62181
62289
62065
61921
62136
62298
61993
61832
62127
62271
62020
61858
62109
62271
62002
61849
62118
62316
62029
61849
62145
62307
62029
61849
62100
62262
61984
61858
62172
62316
62020
61867
62163
62316
62038
61867
62109
62298
62038
61867
62127
62325
62074
61867
62127
62316
62038
61903
62199
62334
62056
61912
62217
62369
62074
61921
62226
62405
62100
61912
62181
62387
62145
62002
62262
62369
62091
61921
62145
62226
61957
61912
62289
62468
62199
62136
62576
62818
62549
62378
62594
62585
62118
61966
62289
62459
62190
62011
62325
62486
62172
62011
62307
62477
62208
62074
62351
62531
62253
62065
62405
62710
62522
62271
62369
62719
63302
64933
68663
73261
77627
77780
71962
66332
62244
60119
60738
61392
61823
62208
62880
63463
63122
62925
63311
63544
63311
63203
63535
63750
63544
63409
63687
63929
63723
63598
63965
64225
64037
63938
64297
64521
64270
64234
64628
64853
64664
64602
65005
65355
65238
65238
65704
66063
66009
66117
66663
67067
67058
67165
67766
68259
68313
68465
68976
69460
69434
69407
69855
70133
69882
69568
69532
69317
68474
67694
67390
66923
66027
65319
65086
64826
64171
63615
63624
63651
63221
62898
63042
63158
62853
62647
62934
63087
62746
62576
62845
63015
62764
62594
62925
63104
62809
62638
62889
63042
62800
62674
62925
63104
62836
62620
62907
63113
62845
62656
62916
63096
62818
62611
62862
63033
62764
62576
62845
62979
62692
62504
62755
62961
62665
62432
62728
62925
62602
62432
62701
62853
62585
62405
62683
62853
62549
62360
62647
62818
62549
62369
62629
62827
62585
62396
62656
62845
62549
62334
62620
62836
62549
62351
62602
62773
62522
62351
62620
62809
62513
62325
62594
62764
62522
62334
62611
62827
62531
62334
62602
62809
62540
62334
62638
62791
62495
62325
62540
62692
62387
62262
62674
62836
62576
62504
62889
63149
62934
62728
62925
63078
62594
62289
62656
62800
62513
62360
62602
62773
62513
62325
62594
62800
62558
62360
62647
62853
62549
62405
62755
63024
62836
62611
62755
63167
63687
65283
68985
73808
78595
78757
72867
67085
62764
60711
61347
62002
62414
62746
63382
63813
63463
63257
63580
63849
63669
63508
63804
64037
63831
63696
64019
64270
64064
63911
64234
64521
64324
64207
64539
64790
64584
64485
64871
65157
65005
64933
65328
65659
65561
65525
65973
66377
66332
66359
66888
67363
67408
67533
68089
68609
68672
68788
69353
69783
69729
69756
70160
70393
70097
69729
69649
69389
68573
67784
67416
66986
66144
65426
65175
64924
64333
63831
63831
63849
63436
63122
63302
63445
63140
62889
63131
63311
63042
62862
63122
63320
63042
62853
63140
63347
63087
62916
63212
63400
63158
62979
63221
63436
63167
62934
63230
63436
63149
62979
63212
63391
63149
62943
63212
63373
63104
62925
63149
63311
63051
62853
63096
63284
63015
62791
63051
63239
62961
62773
63033
63221
62970
62746
62997
63194
62925
62746
62988
63149
62898
62710
62961
63158
62898
62683
62934
63131
62889
62710
62961
63149
62898
62692
62934
63131
62880
62665
62925
63131
62880
62692
62934
63122
62889
62665
62871
63087
62853
62647
62925
63131
62845
62647
62907
63131
62880
62665
62952
63158
62907
62710
62952
63149
62898
62710
62979
63176
62925
62728
63006
63239
62943
62737
63033
63167
62836
62665
62979
63293
63042
62853
63266
63571
63391
63221
63481
63678
63400
63024
63104
63400
63185
62970
63212
63409
63176
62979
63248
63472
63230
63024
63293
63508
63284
63104
63364
63633
63490
63409
63607
63624
63490
63929
65928
69559
74014
79268
80577
75001
68528
63795
61930
62576
62898
63409
64144
64646
64602
64279
64539
64853
64646
64503
64808
65068
64897
64754
65050
65346
65166
65023
65355
65624
65444
65319
65668
65937
65767
65686
66045
66332
66188
66126
66502
66834
66744
66717
67139
67515
67479
67506
68017
68483
68492
68591
69183
69720
69792
69909
70500
71011
71047
71101
71549
71935
71818
71612
71711
71621
70931
70213
69909
69478
68600
67811
67506
67201
66520
65937
65875
65803
65328
64987
65113
65220
64906
64664
64871
65059
64853
64646
64871
65095
64862
64637
64879
65122
64879
64673
64960
65157
64915
64736
64987
65202
64969
64745
64996
65193
64960
64754
64978
65211
64951
64736
64969
65139
64888
64691
64915
65104
64862
64646
64871
65077
64790
64539
64772
64996
64754
64521
64718
64933
64691
64467
64736
64951
64673
64449
64673
64871
64628
64395
64620
64844
64593
64360
64566
64772
64548
64315
64548
64781
64512
64288
64548
64745
64503
64288
64476
64691
64458
64225
64449
64673
64440
64189
64413
64637
64395
64153
64377
64611
64377
64144
64342
64521
64288
64073
64315
64539
64315
64091
64261
64467
64234
64028
64306
64503
64216
64001
64243
64431
64198
63974
64180
64413
64162
63893
64091
64324
64117
63893
64082
64171
63911
63705
63893
64270
64135
64037
64449
64575
64306
64189
64351
64288
63938
63804
64019
64198
63974
63705
63947
64216
63947
63705
63938
64126
63911
63714
63920
64126
63858
63633
63947
64333
64135
63723
63866
64449
65247
67434
71594
76820
80846
78335
71684
66628
62898
61715
62513
63329
63795
63947
64512
64862
64530
64342
64637
64888
64700
64494
64754
65041
64853
64646
64879
65184
65032
64844
65113
65390
65211
65050
65355
65650
65498
65337
65633
65982
65866
65740
66090
66421
66386
66350
66708
67148
67094
67094
67623
68134
68232
68304
68815
69344
69407
69514
70043
70527
70509
70447
70832
71092
70742
70249
70097
69828
69075
68295
67829
67399
66574
65758
65525
65346
64745
64180
64109
64162
63822
63454
63633
63822
63472
63212
63427
63607
63382
63113
63355
63598
63284
63060
63338
63526
63284
63104
63355
63571
63302
63042
63302
63517
63248
63051
63248
63472
63302
63033
63230
63463
63221
62970
63176
63373
63149
62880
63033
63302
63024
62719
62979
63176
62934
62728
62898
63122
62898
62620
62845
63042
62773
62540
62737
62952
62755
62513
62692
62925
62683
62387
62611
62871
62594
62298
62549
62800
62540
62289
62486
62728
62549
62271
62459
62701
62468
62253
62450
62638
62423
62190
62423
62656
62405
62145
62360
62611
62360
62091
62316
62567
62334
62074
62298
62522
62307
62065
62280
62513
62262
62011
62226
62486
62271
62029
62253
62495
62253
61993
62163
62369
62190
61948
62145
62316
61984
61814
62047
62316
62208
62074
62495
62791
62477
62208
62495
62611
62136
61930
62226
62432
62199
61948
62208
62432
62181
61939
62145
62423
62208
61975
62190
62414
62235
61993
62226
62531
62414
62262
62414
62495
62558
63230
65435
69335
73683
77986
77582
71442
65767
61778
60505
61195
61365
61840
62558
63167
63221
62898
63104
63409
63248
63078
63329
63615
63454
63266
63535
63822
63660
63463
63741
64064
63929
63732
64001
64324
64198
64046
64315
64673
64584
64422
64763
65139
65059
64969
65355
65794
65803
65758
66179
66690
66780
66834
67336
67883
67990
68044
68564
69084
69120
69129
69514
69891
69720
69380
69434
69335
68636
67865
67452
67085
66260
65408
65131
64888
64216
63642
63562
63562
63185
62773
62880
63051
62764
62459
62647
62871
62647
62405
62602
62853
62638
62369
62602
62871
62647
62414
62629
62880
62701
62477
62674
62925
62728
62477
62674
62943
62746
62513
62719
62916
62683
62450
62656
62889
62656
62396
62585
62818
62620
62334
62531
62800
62549
62280
62477
62710
62495
62235
62459
62701
62477
62235
62441
62656
62468
62199
62378
62647
62414
62145
62351
62594
62396
62127
62351
62594
62378
62172
62360
62602
62423
62163
62351
62594
62405
62163
62351
62602
62378
62127
62351
62585
62396
62181
62334
62576
62387
62145
62342
62585
62387
62127
62316
62549
62378
62118
62307
62576
62351
62118
62334
62576
62387
62118
62325
62602
62387
62118
62316
62594
62405
62154
62334
62567
62414
62163
62342
62620
62414
62172
62378
62620
62414
62136
62351
62629
62414
62181
62387
62638
62450
62190
62396
62665
62477
62217
62342
62594
62459
62208
62396
62558
62298
62127
62244
62576
62522
62334
62782
63060
62755
62567
62800
62907
62477
62271
62531
62719
62540
62262
62459
62737
62522
62280
62486
62764
62576
62289
62504
62773
62585
62351
62585
62943
62880
62558
62576
62988
63454
64844
68394
73432
78802
80137
74929
68672
63768
61141
61536
62378
62800
62997
63472
63849
63580
63329
63526
63831
63696
63463
63714
64046
63893
63687
63920
64234
64100
63920
64162
64476
64360
64180
64431
64763
64664
64485
64790
65148
65041
64915
65247
65633
65588
65498
65848
66305
66359
66278
66708
67255
67336
67390
67910
68510
68636
68654
69156
69711
69747
69738
70124
70464
70285
69945
69891
69756
69084
68250
67820
67479
66681
65839
65507
65292
64700
64117
64028
64055
63687
63293
63373
63544
63302
62997
63176
63409
63212
62979
63149
63382
63212
62970
63176
63454
63266
63006
63230
63481
63266
63042
63266
63517
63320
63060
63230
63481
63293
63024
63221
63472
63248
62997
63212
63409
63185
62970
63176
63409
63185
62925
63122
63364
63149
62898
63104
63320
63104
62853
63069
63311
63087
62836
63024
63266
63042
62764
62979
63221
63015
62782
63006
63221
62997
62773
62961
63212
62997
62728
62970
63203
62961
62710
62925
63167
62979
62737
62934
63212
62988
62719
62934
63167
62961
62710
62934
63167
62943
62701
62943
63167
62943
62710
62889
63158
62952
62701
62925
63140
62943
62701
62916
63185
62952
62719
62943
63185
62952
62701
62916
63149
62952
62737
62925
63158
62961
62701
62934
63203
62979
62755
62988
63203
62997
62764
62961
63194
63006
62746
62952
63221
62979
62746
62997
63194
63006
62773
62997
63257
62970
62692
62943
63194
62997
62656
62755
63087
62827
62611
62997
63320
63320
63087
63176
63499
63320
62853
62853
63167
63006
62728
62961
63176
62934
62719
62916
63176
62988
62692
62925
63185
62970
62755
62943
63194
63033
62871
63239
63427
63051
63024
63947
66054
69460
73889
79115
79671
73288
66986
63051
61437
61697
62020
62898
63651
63759
63651
63768
64010
63840
63696
63992
64252
64073
63875
64109
64413
64261
64055
64324
64664
64512
64261
64539
64871
64763
64611
64871
65139
64987
64879
65211
65597
65507
65364
65740
66179
66144
66108
66511
66977
67040
67031
67524
68089
68223
68304
68824
69407
69460
69505
70043
70491
70447
70267
70456
70626
70187
69532
69218
68887
68044
67201
66780
66403
65704
64978
64745
64655
64216
63759
63759
63840
63517
63185
63311
63544
63302
63024
63239
63454
63248
63006
63203
63499
63338
63078
63266
63526
63302
63051
63266
63508
63329
63051
63248
63535
63355
63104
63302
63562
63347
63069
63248
63508
63311
63069
63248
63463
63266
62997
63158
63382
63158
62925
63140
63373
63104
62791
63015
63284
63096
62862
63042
63266
63024
62764
62988
63239
63006
62719
62925
63167
62979
62737
62898
63149
62970
62701
62907
63140
62925
62674
62853
63140
62943
62656
62862
63087
62889
62647
62845
63104
62871
62638
62836
63069
62889
62647
62862
63113
62898
62629
62818
63096
62907
62629
62827
63113
62916
62656
62853
63113
62907
62647
62862
63122
62925
62674
62880
63149
62961
62710
62898
63176
62988
62728
62943
63212
63015
62764
62907
63176
63015
62674
62809
63051
62952
62880
63051
63302
63212
63069
63391
63687
63490
63149
63239
63302
63015
62871
63042
63248
63087
62818
63006
63266
63069
62818
63024
63266
63087
62845
63069
63347
63149
62952
63221
63589
63436
62970
63212
64126
65328
68080
72580
77905
80084
75180
68905
64682
61805
61500
62217
63042
63445
63544
64082
64333
64082
63884
64126
64449
64297
64100
64342
64646
64512
64306
64548
64871
64736
64539
64808
65131
64978
64808
65068
65390
65301
65131
65453
65803
65695
65588
65919
66323
66296
66197
66601
67058
67085
67085
67515
68080
68196
68223
68752
69344
69478
69505
69936
70438
70491
70429
70715
71011
70742
70240
70070
69846
69102
68241
67784
67416
66681
65892
65579
65435
64879
64342
64351
64404
64046
63723
63822
64001
63777
63490
63651
63902
63705
63472
63669
63902
63741
63481
63660
63956
63777
63499
63714
63983
63786
63535
63750
64010
63813
63580
63786
64037
63840
63580
63777
64037
63822
63553
63741
63992
63786
63508
63687
63929
63732
63454
63624
63929
63678
63418
63624
63705
63615
63580
63589
63633
63624
63544
63589
63660
63598
63553
63571
63598
63580
63526
63526
63553
63517
63454
63472
63526
63481
63400
63427
63481
63463
63409
63409
63445
63436
63382
63400
63463
63418
63355
63373
63409
63373
63293
63311
63373
63338
63257
63293
63355
63302
63230
63257
63320
63293
63230
63248
63302
63248
63167
63203
63248
63203
63131
63185
63239
63185
63122
63131
63203
63167
63078
63096
63158
63104
63042
63087
63113
63069
63015
63015
63060
63033
62970
63015
63051
63006
62961
62979
63024
63006
62925
62925
62979
62970
62853
62764
62764
62755
62836
62889
62907
62970
62997
63122
63212
63203
63122
63113
63060
62800
62737
62809
62800
62791
62719
62719
62791
62746
62674
62719
62755
62719
62656
62683
62782
62737
62683
62791
62979
62997
62800
62755
63122
64117
66493
70491
75745
80173
78192
71460
65937
62163
61087
61706
62316
62907
63176
63508
63589
63463
63463
63499
63624
63642
63607
63705
63795
63804
63795
63858
63956
63992
64001
64073
64171
64225
64252
64324
64449
64503
64539
64655
64799
64879
64933
65068
65247
65364
65489
65686
65946
66135
66269
66556
66914
67130
67381
67739
68080
68358
68609
68914
69254
69478
69595
69774
69927
69882
69702
69487
69156
68636
67999
67408
66861
66233
65606
65122
64736
64315
63920
63678
63526
63329
63158
63087
63060
62979
62880
62871
62916
62880
62809
62827
62898
62889
62818
62862
62943
62916
62845
62862
62961
62934
62889
62916
62988
62997
62898
62907
62970
62952
62916
62907
62961
62916
62836
62880
62925
62889
62827
62818
62871
62845
62755
62782
62853
62818
62737
62746
62809
62764
62692
62710
62746
62728
62656
62683
62746
62710
62656
62674
62728
62710
62665
62674
62719
62692
62620
62683
62719
62674
62638
62656
62701
62683
62620
62620
62701
62683
62620
62647
62701
62656
62611
62647
62719
62665
62585
62638
62692
62674
62629
62629
62692
62665
62602
62620
62683
62656
62594
62620
62701
62683
62638
62656
62692
62683
62620
62656
62719
62665
62647
62692
62728
62719
62647
62674
62764
62710
62647
62692
62755
62728
62674
62692
62755
62746
62692
62719
62791
62782
62746
62737
62782
62791
62737
62746
62818
62818
62782
62800
62862
62827
62746
62818
62871
62728
62611
62665
62845
62898
62836
62916
63051
63167
63149
63176
63275
63194
63024
62836
62898
62970
62836
62862
62934
62871
62827
62871
62925
62898
62836
62871
62961
62943
62862
62916
63033
63024
63051
63212
63212
63024
63131
63893
65803
69407
74203
79429
79976
73898
67667
63355
61500
61876
62342
62988
63535
63866
63938
63849
63920
63947
63956
64010
64126
64162
64117
64216
64360
64377
64360
64449
64566
64602
64620
64718
64826
64862
64897
64996
65139
65211
65256
65408
65570
65650
65740
65901
66108
66260
66368
66619
66923
67112
67309
67632
67972
68259
68519
68833
69227
69514
69711
69962
70249
70438
70464
70545
70581
70312
69927
69505
68994
68412
67739
67130
66646
66108
65570
65166
64871
64566
64288
64126
64055
63911
63750
63723
63732
63669
63598
63624
63678
63669
63607
63624
63687
63696
63642
63687
63786
63732
63660
63696
63750
63768
63714
63723
63795
63759
63705
63732
63786
63795
63741
63768
63831
63759
63678
63696
63750
63723
63651
63660
63705
63687
63669
63678
63714
63723
63660
63669
63723
63669
63598
63660
63750
63732
63669
63687
63750
63741
63714
63750
63804
63732
63651
63714
63777
63723
63687
63741
63795
63795
63750
63759
63849
63840
63786
63840
63911
63893
63858
63893
63947
63938
63875
63911
64010
64001
63956
63983
64037
64019
63965
64037
64082
64046
64019
64046
64126
64100
64010
64064
64153
64135
64117
64162
64207
64180
64153
64198
64234
64189
64126
64171
64261
64261
64225
64261
64351
64324
64261
64306
64377
64369
64270
64306
64440
64395
64333
64395
64467
64422
64351
64369
64422
64386
64351
64360
64351
64261
64162
64386
64548
64476
64512
64620
64781
64826
64808
64853
64799
64566
64315
64404
64548
64521
64431
64404
64494
64476
64404
64458
64512
64485
64404
64458
64566
64521
64458
64503
64620
64718
64745
64628
64566
65005
66009
68654
72858
77439
80595
77340
70707
66135
63087
62531
63113
63607
64306
64772
65238
65346
65202
65274
65408
65426
65426
65507
65597
65606
65579
65633
65740
65767
65758
65857
65973
65964
65982
66072
66170
66233
66224
66305
66475
66529
66574
66726
66870
66941
67049
67219
67452
67614
67748
68026
68313
68510
68734
69048
69425
69676
69891
70196
70509
70742
70877
71074
71298
71307
71209
71101
70886
70447
69864
69281
68743
68125
67452
66879
66421
65964
65507
65193
64969
64727
64485
64333
64279
64189
64046
