# aauwss ecg epoch, one sample per line
# source AAUWSS (Aalborg University Wearable Sleep Study) v1.1, Zenodo 10.5281/zenodo.16919071
# licence CC-BY-4.0 - Djanian S, Nielsen T D, Nielsen S H, Bruun A (2025)
# subject 07
# fs_hz 200.0
# samples 6000
# scale 0.1  (value = count * scale, arbitrary published units, NOT mV)
# source_row 464 of 929
# stage_label N3
# epoch 465.0
-293896
-294118
-293007
-292562
-293451
-293451
-292340
-291896
-292785
-292785
-291451
-290784
-291451
-291451
-290117
-289673
-290340
-290340
-289228
-288784
-289895
-290340
-289673
-289895
-291229
-291896
-291451
-291451
-292785
-293229
-292562
-292340
-293451
-293674
-292785
-292562
-293451
-293451
-292562
-292340
-293229
-293229
-292340
-291896
-292562
-292785
-291673
-291451
-292118
-292340
-291451
-291006
-291896
-292118
-291006
-290562
-291451
-291451
-290562
-290117
-291006
-291229
-290340
-290117
-291006
-291229
-290340
-290117
-291006
-291006
-290117
-289895
-290784
-291006
-289895
-289673
-290562
-291006
-289895
-289895
-290784
-290784
-289895
-289673
-290562
-290784
-289895
-289673
-290562
-291006
-289895
-289673
-290562
-290784
-289895
-289451
-290340
-290784
-289673
-289451
-290117
-290340
-289228
-289006
-289673
-289673
-288561
-288117
-289006
-289451
-288784
-288561
-289451
-289895
-289006
-288784
-289895
-290562
-289451
-289006
-290117
-290340
-289228
-289006
-289895
-290117
-289228
-288784
-289451
-289895
-288784
-288561
-289451
-289673
-288561
-288117
-289006
-289228
-288339
-288561
-289451
-288784
-285005
-281671
-279448
-276559
-277004
-282338
-288117
-289895
-288561
-288339
-289673
-289895
-289006
-288117
-288561
-288784
-287672
-287006
-287672
-288117
-287006
-286783
-287672
-287895
-286783
-286561
-287450
-287672
-286561
-286117
-287006
-287228
-286117
-285672
-286561
-286783
-285894
-285450
-286339
-286561
-285672
-285227
-286117
-286339
-285227
-284783
-285450
-285672
-284561
-283894
-284783
-284783
-283449
-283005
-283449
-283449
-282116
-281449
-282338
-282338
-281227
-281004
-281893
-282560
-281893
-281893
-283227
-283894
-283449
-283672
-284783
-285450
-284561
-284338
-285450
-285894
-285005
-284783
-285672
-285894
-285005
-284561
-285672
-285894
-284783
-284561
-285450
-285672
-284561
-284338
-285227
-285450
-284561
-283894
-284783
-285005
-284116
-283894
-284561
-284783
-283894
-283672
-284561
-285005
-284116
-283672
-284561
-284783
-284116
-283672
-284561
-285005
-283894
-283672
-284561
-285005
-284116
-283672
-284561
-285005
-284116
-283894
-284783
-285005
-284338
-283894
-284783
-285227
-284338
-284116
-285005
-285227
-284561
-284116
-285227
-285672
-284561
-284338
-285227
-285450
-284783
-284338
-285227
-285672
-284783
-284338
-285227
-285450
-284561
-284116
-284783
-285005
-284116
-283672
-284561
-285227
-284338
-284116
-285227
-285672
-284783
-284561
-285672
-286339
-285227
-284783
-285672
-286117
-285227
-284783
-285672
-286117
-285227
-284783
-285672
-285894
-285005
-284783
-285672
-285894
-285005
-284561
-285672
-285894
-284783
-284561
-285894
-286783
-285450
-282783
-280338
-277670
-273447
-272336
-278337
-283894
-285672
-285227
-285894
-286783
-286117
-285672
-286561
-286561
-285227
-284783
-285227
-285450
-284561
-284338
-285227
-285672
-284561
-284338
-285227
-285450
-284338
-283894
-284783
-285227
-284338
-283894
-284561
-285005
-283894
-283449
-284338
-284783
-283672
-283227
-284116
-284338
-283227
-282783
-283672
-283894
-282783
-282116
-283005
-283005
-281893
-281227
-281893
-282116
-281004
-280115
-280782
-280782
-279671
-279226
-280115
-280560
-279893
-279893
-281227
-282116
-281671
-281671
-283005
-283672
-283227
-283005
-283894
-284561
-283672
-283227
-284338
-284783
-283894
-283449
-284338
-284783
-283894
-283449
-284338
-284783
-283672
-283449
-284338
-284561
-283672
-283227
-284116
-284561
-283449
-283005
-283894
-284338
-283449
-283005
-283894
-284116
-283449
-283005
-283894
-284338
-283449
-283005
-283672
-284116
-283449
-283005
-283894
-284338
-283449
-283005
-284116
-284561
-283672
-283227
-284116
-284561
-283672
-283227
-284116
-284783
-283894
-283449
-284561
-285005
-284116
-283672
-284783
-285227
-284338
-283894
-284783
-285450
-284561
-284116
-285005
-285672
-284783
-284338
-285227
-285450
-284561
-284116
-285005
-285227
-284338
-283894
-284561
-284783
-284116
-283672
-284561
-285227
-284561
-284338
-285227
-285894
-285005
-284783
-285672
-286117
-285227
-284783
-285672
-286117
-285227
-284783
-285672
-286117
-285450
-284783
-285672
-286117
-285227
-284783
-285672
-286117
-285005
-284561
-285450
-286117
-285672
-285450
-285450
-282783
-278782
-275003
-273225
-275892
-280782
-284561
-286561
-286561
-285894
-285894
-287006
-287228
-286117
-285227
-285894
-286339
-285227
-284561
-285450
-285894
-285227
-284783
-285672
-285894
-285005
-284561
-285227
-285672
-284783
-284116
-285005
-285227
-284338
-283894
-284783
-285005
-284116
-283672
-284338
-284783
-283894
-283449
-284116
-284338
-283449
-282783
-283449
-283672
-282560
-281893
-282560
-282783
-281449
-280782
-281449
-281671
-280560
-279671
-280338
-280560
-279893
-279671
-280782
-281449
-281004
-281227
-282560
-283227
-282783
-282783
-283894
-284561
-283894
-283672
-284561
-285227
-284338
-283894
-284783
-285227
-284338
-283672
-284561
-285227
-284338
-283672
-284561
-285005
-284116
-283672
-284561
-285005
-284116
-283672
-284561
-285005
-284116
-283672
-284561
-285005
-284116
-283894
-284561
-285005
-284116
-283672
-284561
-285005
-284116
-283672
-284783
-285227
-284338
-283672
-284561
-285227
-284338
-284116
-285005
-285450
-284561
-284116
-285005
-285450
-284783
-284338
-285227
-285672
-285005
-284561
-285450
-286117
-285227
-284783
-285672
-286339
-285450
-285005
-285894
-286339
-285450
-284783
-285672
-286117
-285450
-285005
-285672
-286117
-285227
-284561
-285227
-285894
-285227
-285005
-286117
-286561
-285672
-285227
-286339
-287006
-286117
-285450
-286339
-286783
-285894
-285450
-286339
-287006
-286117
-285672
-286561
-287006
-286117
-285672
-286561
-287006
-286117
-285672
-286339
-286783
-286117
-286339
-287895
-287672
-284338
-280338
-278337
-275225
-274781
-279893
-285672
-287895
-287006
-286339
-287895
-288561
-287895
-287450
-287672
-287895
-287228
-286339
-287006
-287450
-286561
-286117
-287006
-287450
-286783
-286339
-287006
-287450
-286561
-285894
-286783
-287228
-286339
-285672
-286561
-287006
-286117
-285450
-286339
-286783
-285894
-285227
-285894
-286339
-285450
-284783
-285450
-285894
-284783
-284116
-284783
-284783
-283672
-283005
-283449
-283672
-282783
-281893
-282560
-282783
-281893
-281449
-282338
-283005
-282783
-282560
-283894
-285005
-284561
-284561
-285894
-286561
-286117
-285894
-287006
-287450
-286561
-286339
-287006
-287672
-286783
-286339
-287006
-287450
-286561
-286117
-287006
-287450
-286561
-285894
-286783
-287228
-286339
-285672
-286561
-287228
-286339
-285672
-286561
-287006
-286339
-285672
-286561
-287006
-286339
-285672
-286339
-287006
-286339
-285894
-286561
-287228
-286561
-285894
-286783
-287672
-287006
-286339
-287228
-287895
-287006
-286561
-287450
-288117
-287450
-287228
-288117
-288784
-287895
-287450
-288339
-288784
-288117
-287450
-288339
-288784
-288117
-287672
-288339
-289006
-287895
-287450
-288561
-289006
-288339
-288339
-289228
-289895
-289228
-288784
-289895
-290562
-289673
-289228
-290117
-290562
-289895
-289451
-290340
-291006
-290340
-289895
-290784
-291451
-290784
-290340
-291229
-291673
-291006
-290562
-291451
-292118
-292118
-292340
-293229
-292118
-287895
-284116
-281227
-280115
-283672
-289451
-293896
-294785
-293896
-293674
-295007
-296119
-295452
-294785
-295230
-295674
-295007
-294340
-295007
-295452
-294785
-294563
-295452
-295896
-295230
-294785
-295452
-296119
-295452
-294785
-295452
-296119
-295230
-294563
-295452
-296119
-295230
-294563
-295452
-295896
-295007
-294563
-295452
-295896
-295007
-294563
-295007
-295452
-294563
-293674
-294563
-294785
-293674
-293007
-293674
-294118
-293229
-292340
-293007
-293674
-292785
-292118
-293229
-294340
-293896
-293674
-295230
-296119
-295896
-295674
-296785
-297674
-297008
-296563
-297452
-298119
-297230
-296563
-297452
-298119
-297452
-296785
-297452
-298119
-297452
-296785
-297452
-297897
-297230
-296563
-297452
-298119
-297230
-296785
-297452
-297897
-297008
-296341
-297008
-297674
-296785
-296341
-297008
-297674
-297008
-296341
-297008
-297674
-296785
-296341
-297008
-297674
-297008
-296341
-297230
-297897
-297008
-296341
-297230
-297897
-297008
-296563
-297230
-297897
-297230
-296563
-297452
-297897
-297230
-296785
-297452
-297897
-297230
-296563
-297452
-298119
-297230
-296563
-297230
-297674
-296785
-295896
-296563
-297008
-296119
-295452
-296341
-297008
-296563
-296119
-296785
-297674
-297008
-296341
-297230
-298119
-297230
-296563
-297230
-297897
-297008
-296341
-297230
-297674
-297008
-296341
-297008
-297674
-296785
-296119
-297008
-297452
-296563
-295896
-296563
-297230
-296563
-296563
-297008
-295896
-291896
-288339
-285672
-284116
-286783
-291896
-296563
-297897
-296563
-296341
-297230
-297897
-296785
-295674
-295896
-296119
-295230
-294563
-295007
-295674
-294785
-294118
-295007
-295452
-294563
-293896
-294563
-295007
-294340
-293451
-294118
-294785
-293896
-293007
-293674
-294118
-293229
-292562
-293229
-293674
-293007
-292118
-292785
-293229
-292340
-291451
-291896
-292340
-291451
-290562
-291006
-291229
-290117
-289006
-289451
-289673
-288561
-287672
-288117
-288561
-287672
-287006
-287895
-288784
-288339
-288339
-289451
-290340
-290117
-289895
-290784
-291451
-291006
-290340
-291229
-291896
-291229
-290562
-291229
-291673
-290784
-290340
-291006
-291451
-290784
-290117
-290784
-291451
-290562
-289895
-290562
-291229
-290340
-289673
-290340
-290784
-289895
-289228
-289895
-290562
-289673
-289006
-289895
-290562
-289673
-289006
-289895
-290562
-289673
-289006
-289673
-290340
-289673
-289006
-289673
-290340
-289673
-289006
-289673
-290340
-289451
-289006
-289673
-290340
-289451
-288784
-289673
-290117
-289451
-289006
-289673
-290340
-289673
-289006
-289895
-290562
-289673
-289006
-289895
-290562
-289895
-289228
-289895
-290340
-289673
-289006
-289673
-290117
-289006
-288339
-289006
-289451
-288561
-288339
-289228
-289895
-289228
-288561
-289451
-290117
-289673
-289006
-289673
-290117
-289451
-288784
-289451
-290117
-289451
-288784
-289451
-290117
-289451
-288784
-289451
-290117
-289228
-288561
-289451
-289895
-289006
-288561
-289228
-290340
-289895
-288561
-286561
-283894
-280115
-276114
-277670
-283894
-287895
-289228
-289673
-290340
-290117
-289451
-290340
-290562
-289228
-288339
-289006
-289451
-288561
-287895
-288561
-289228
-288561
-287895
-288561
-289006
-288339
-287450
-288339
-288784
-287895
-287228
-288117
-288561
-287895
-287228
-287895
-288339
-287450
-287006
-287672
-288117
-287228
-286561
-287006
-287450
-286561
-285894
-286339
-286783
-285894
-284783
-285450
-285894
-284783
-283894
-284338
-284783
-283672
-282783
-283449
-283894
-283449
-283005
-284116
-285227
-284783
-284561
-285672
-286783
-286339
-286117
-287228
-287672
-287006
-286561
-287228
-287895
-287228
-286339
-287228
-287895
-287006
-286339
-287006
-287450
-286783
-286117
-286783
-287450
-286561
-285894
-286561
-287228
-286561
-285894
-286561
-287228
-286339
-285672
-286561
-287228
-286561
-285894
-286783
-287228
-286561
-285894
-286783
-287228
-286561
-285894
-286561
-287228
-286561
-285894
-286561
-287228
-286561
-286117
-286783
-287450
-286783
-286117
-287006
-287672
-286783
-286339
-287006
-287672
-287006
-286339
-287228
-287895
-287228
-286561
-287228
-288117
-287450
-286561
-287450
-288117
-287228
-286561
-287450
-288117
-287228
-286561
-287450
-288117
-287228
-286339
-287006
-287450
-286561
-286339
-287006
-287672
-287450
-286783
-287450
-288117
-287450
-287006
-287672
-288339
-287450
-286783
-287672
-288117
-287450
-286783
-287450
-288117
-287450
-286783
-287450
-288117
-287228
-286561
-287450
-288117
-287228
-286561
-287228
-288117
-287895
-287450
-287006
-284561
-280782
-277004
-275003
-277893
-283005
-286561
-288339
-288339
-287895
-287672
-288561
-289228
-288339
-287006
-287672
-287895
-287006
-286339
-287006
-287672
-287006
-286339
-287006
-287672
-286783
-286117
-286783
-287228
-286561
-285894
-286561
-287006
-286339
-285450
-286339
-286783
-285894
-285227
-285894
-286561
-285894
-285005
-285672
-286117
-285227
-284561
-285005
-285450
-284561
-283672
-284116
-284561
-283449
-282560
-283227
-283672
-282560
-281449
-282116
-282560
-281893
-281449
-282338
-283227
-283005
-282783
-284116
-285227
-284783
-284561
-285450
-286339
-285672
-285227
-285894
-286561
-285894
-285227
-286117
-286561
-285894
-285227
-285894
-286561
-285672
-285005
-285672
-286339
-285672
-285005
-285672
-286117
-285450
-284783
-285450
-286117
-285227
-284561
-285227
-286117
-285450
-284783
-285450
-286117
-285450
-284783
-285450
-286117
-285450
-284783
-285672
-286339
-285672
-285005
-285894
-286561
-285894
-285227
-285894
-286561
-285894
-285227
-285894
-286561
-285894
-285227
-286117
-286783
-286117
-285672
-286561
-287228
-286339
-285894
-286561
-287228
-286783
-286117
-287006
-287672
-287006
-286339
-287006
-287672
-287006
-286339
-286783
-287450
-286783
-286117
-286783
-287228
-286561
-285672
-286339
-287228
-286561
-285894
-287006
-287895
-287006
-286561
-287228
-287895
-287450
-286783
-287228
-287895
-287450
-286783
-287450
-288117
-287228
-286561
-287228
-287895
-287228
-286561
-287228
-287895
-287228
-286339
-287006
-287672
-286783
-286117
-287450
-288339
-287006
-284116
-281449
-279226
-275003
-274559
-280338
-286117
-287672
-286783
-287228
-288339
-288117
-287450
-287895
-288117
-287006
-286117
-286783
-287228
-286339
-285672
-286561
-287228
-286561
-285894
-286561
-287006
-286339
-285450
-286339
-286783
-286117
-285450
-285894
-286561
-285894
-285005
-285672
-286339
-285450
-284783
-285672
-286117
-285227
-284561
-285005
-285450
-284561
-283672
-284338
-284783
-283672
-282783
-283227
-283672
-282783
-281671
-282116
-282560
-281893
-281004
-281671
-282560
-282116
-281671
-283005
-284116
-283672
-283672
-284783
-285894
-285450
-285005
-285894
-286783
-286117
-285672
-286339
-287006
-286339
-285672
-286339
-287006
-286339
-285672
-286339
-287006
-286339
-285672
-286339
-287006
-286339
-285672
-286117
-287006
-286339
-285450
-286117
-286783
-285894
-285450
-286117
-286783
-285894
-285227
-286117
-286783
-285894
-285227
-285894
-286561
-285894
-285227
-285894
-286561
-285894
-285227
-286117
-286783
-286117
-285450
-286117
-286783
-286117
-285450
-286339
-287006
-286117
-285672
-286339
-287006
-286561
-285894
-286783
-287450
-286783
-286117
-287006
-287450
-286783
-286117
-286783
-287450
-286561
-285894
-286561
-287228
-286561
-286117
-287006
-287895
-287450
-286783
-287450
-288117
-287450
-287006
-287895
-288339
-287672
-287006
-287672
-288339
-287450
-286783
-287672
-288339
-287672
-287006
-287672
-288561
-287672
-287006
-287672
-288339
-287450
-287006
-288339
-289673
-288561
-286117
-283449
-281004
-276781
-275003
-280115
-286561
-288561
-287895
-288339
-289451
-289228
-288784
-289673
-289895
-288784
-288117
-288784
-289006
-288339
-287672
-288561
-289006
-288339
-287672
-288561
-289006
-288339
-287450
-288339
-288784
-288117
-287450
-287895
-288561
-287672
-287006
-287672
-288339
-287450
-286783
-287450
-288117
-287228
-286339
-286783
-287450
-286783
-285894
-286339
-286783
-285672
-284783
-285450
-285894
-284783
-283894
-284338
-284783
-283894
-283005
-283672
-284561
-284116
-283894
-285227
-286339
-286117
-285894
-287006
-288117
-287895
-287450
-288561
-289451
-288784
-288117
-288784
-289673
-289006
-288339
-289006
-289673
-289006
-288339
-289006
-289673
-289006
-288117
-288784
-289673
-289006
-288339
-289006
-289451
-288784
-288117
-288784
-289451
-288784
-288117
-288784
-289451
-288784
-288117
-288561
-289451
-288561
-287895
-288784
-289451
-288784
-288117
-288784
-289451
-289006
-288339
-289006
-289895
-289228
-288561
-289451
-290340
-289673
-289006
-289895
-290562
-290117
-289451
-290340
-291006
-290562
-289895
-290562
-291229
-290562
-290117
-291006
-291673
-291229
-291006
-291896
-292785
-292340
-291896
-292785
-293674
-293229
-292340
-293229
-293896
-293451
-292785
-293451
-294340
-293674
-293229
-293896
-294563
-294118
-293451
-294340
-295230
-294563
-293674
-294563
-295452
-295452
-295452
-295452
-293674
-289228
-285450
-282783
-284116
-289228
-293896
-296563
-296785
-296341
-296119
-297230
-298119
-297452
-296341
-296785
-297674
-296785
-295896
-296563
-297452
-296785
-296119
-296785
-297452
-296785
-296119
-296785
-297674
-296785
-296119
-296785
-297452
-296785
-296119
-296785
-297452
-296785
-295896
-296563
-297230
-296563
-295896
-296563
-297230
-296563
-295674
-296341
-296785
-295896
-294785
-295452
-295896
-295007
-294118
-294785
-295230
-294118
-293451
-293896
-294340
-293674
-293229
-294118
-295230
-295007
-295007
-295896
-297008
-296785
-296563
-297452
-298341
-297674
-297230
-297897
-298564
-298119
-297452
-297897
-298786
-297897
-297230
-297897
-298564
-297674
-296785
-297452
-298119
-297452
-296563
-297230
-297897
-297230
-296563
-297008
-297674
-297008
-296119
-296785
-297452
-296563
-295896
-296563
-297230
-296563
-295896
-296563
-297230
-296563
-295896
-296563
-297008
-296563
-295896
-296341
-297230
-296563
-295896
-296341
-297230
-296563
-295674
-296341
-297008
-296341
-295896
-296341
-297008
-296341
-295674
-296341
-297008
-296341
-295674
-296119
-296785
-296119
-295452
-295896
-296563
-295674
-294785
-295230
-295674
-295007
-294118
-294785
-295674
-295230
-294563
-295452
-296341
-295452
-294785
-295674
-296341
-295452
-294785
-295452
-296119
-295452
-294785
-295230
-295896
-295230
-294340
-295007
-295674
-294785
-294340
-294785
-295452
-294785
-293896
-294340
-295007
-294785
-294340
-294118
-292562
-288561
-284783
-282116
-283005
-287672
-292118
-295230
-295452
-294563
-294340
-295007
-295674
-294340
-293229
-293674
-294118
-293229
-292340
-293007
-293674
-292785
-292118
-292785
-293229
-292340
-291673
-292118
-292562
-291896
-291006
-291673
-292340
-291451
-290562
-291229
-291896
-291006
-290340
-291006
-291451
-290784
-289895
-290340
-291006
-290117
-289228
-289673
-290117
-289006
-288117
-288561
-289006
-287895
-286783
-287228
-287450
-286339
-285450
-285894
-286339
-285672
-285005
-286117
-287228
-286783
-286561
-287672
-288784
-288561
-288117
-289006
-289895
-289228
-288784
-289451
-290117
-289451
-288561
-289228
-289895
-289228
-288561
-289228
-289895
-289006
-288339
-289006
-289451
-288784
-287895
-288561
-289228
-288561
-287672
-288117
-288784
-288117
-287228
-287895
-288561
-287895
-287228
-288117
-288561
-287895
-287228
-288117
-288784
-287895
-287228
-287895
-288561
-287895
-287228
-287895
-288561
-287895
-287228
-287895
-288561
-287672
-287228
-287895
-288561
-287895
-287228
-287895
-288561
-287895
-287228
-287895
-288561
-287895
-287450
-288117
-288784
-288117
-287228
-288117
-288784
-288117
-287450
-288117
-288561
-287895
-287228
-287672
-288339
-287672
-286783
-287228
-287895
-287228
-286561
-287228
-287895
-287450
-287006
-287672
-288339
-287672
-287228
-287895
-288561
-287895
-287228
-287672
-288339
-287672
-287006
-287672
-288339
-287450
-286783
-287450
-288117
-287450
-286561
-287228
-287895
-287228
-286339
-287006
-287672
-287450
-287006
-287450
-286561
-282338
-278782
-276114
-275225
-278559
-283672
-287672
-288561
-287450
-287228
-288117
-288784
-288117
-286783
-287006
-287672
-286561
-285672
-286561
-287228
-286339
-285672
-286561
-287006
-286339
-285672
-286117
-286783
-285894
-285227
-285894
-286561
-285672
-284783
-285450
-286117
-285450
-284561
-285227
-285894
-285227
-284561
-285227
-285672
-285005
-283894
-284561
-285005
-284116
-283227
-283672
-284116
-283227
-282116
-282560
-283005
-282116
-281004
-281449
-282116
-281227
-280782
-281671
-282560
-282338
-282116
-283227
-284338
-284116
-283672
-284783
-285672
-285227
-284561
-285227
-286117
-285450
-284561
-285450
-286117
-285227
-284561
-285227
-285894
-285227
-284338
-285005
-285672
-284783
-284116
-284783
-285450
-284561
-283894
-284561
-285227
-284561
-283894
-284561
-285227
-284561
-283894
-284561
-285227
-284561
-283894
-284561
-285227
-284561
-283894
-284561
-285227
-284561
-283894
-284561
-285450
-284783
-284116
-284783
-285450
-284783
-284116
-285005
-285450
-284783
-284338
-285005
-285672
-285227
-284561
-285227
-286117
-285450
-284783
-285450
-286117
-285450
-284783
-285672
-286339
-285450
-284783
-285672
-286339
-285672
-285005
-285672
-286339
-285672
-284783
-285450
-286117
-285227
-284561
-285005
-285672
-285005
-284561
-285227
-286117
-285672
-285005
-285672
-286561
-285894
-285450
-286117
-286561
-285894
-285227
-285894
-286783
-286117
-285450
-286117
-286783
-286117
-285450
-285894
-286561
-285894
-285227
-285894
-286561
-285894
-285227
-285672
-286561
-286117
-285894
-286339
-284783
-280782
-277004
-274114
-274114
-278337
-283227
-286561
-287228
-286117
-285894
-287006
-287672
-287006
-285672
-286117
-286561
-285672
-284783
-285450
-286339
-285450
-284783
-285672
-286339
-285672
-284783
-285450
-285894
-285227
-284561
-285005
-285894
-285005
-284338
-285005
-285450
-284783
-283894
-284561
-285227
-284561
-283672
-284338
-285005
-284116
-283227
-283672
-284338
-283449
-282338
-282783
-283227
-282338
-281449
-281893
-282338
-281227
-280338
-280560
-281227
-280560
-280115
-281004
-281893
-281671
-281449
-282560
-283894
-283449
-283005
-284116
-285005
-284561
-283894
-284561
-285450
-284561
-284116
-284783
-285450
-284783
-283894
-284561
-285227
-284561
-283672
-284338
-285005
-284338
-283449
-284116
-284783
-284116
-283227
-283894
-284561
-283894
-283227
-283672
-284561
-283894
-283227
-283894
-284561
-283894
-283227
-283894
-284561
-283894
-283227
-283894
-284561
-283894
-283227
-284116
-284783
-284116
-283449
-284338
-285005
-284338
-283672
-284338
-285227
-284561
-283894
-284561
-285227
-284783
-284116
-284783
-285450
-285005
-284338
-285005
-285672
-285005
-284338
-285005
-285672
-285005
-284338
-285227
-285894
-285227
-284561
-285227
-285894
-285227
-284338
-285005
-285672
-285005
-284338
-284783
-285450
-284561
-283894
-284783
-285672
-285005
-284561
-285227
-286117
-285450
-285005
-285672
-286561
-285672
-285005
-285894
-286561
-285894
-285227
-285894
-286561
-286117
-285227
-285894
-286561
-285894
-285005
-285672
-286561
-285894
-285005
-285672
-286339
-285672
-285005
-286117
-287228
-285894
-282338
-279671
-277226
-273447
-273670
-279671
-285450
-286561
-285672
-286339
-287450
-287006
-286339
-286783
-287006
-286117
-285227
-285672
-286339
-285672
-285005
-285672
-286339
-285672
-284783
-285450
-286117
-285450
-284783
-285227
-286117
-285227
-284561
-285005
-285672
-285005
-284116
-284783
-285227
-284561
-283894
-284338
-285005
-284338
-283449
-283894
-284561
-283672
-282783
-283227
-283672
-282783
-281671
-282116
-282560
-281671
-280560
-281004
-281671
-280560
-279893
-280338
-281227
-281004
-280560
-281671
-283005
-282783
-282560
-283672
-284783
-284561
-283894
-284783
-285672
-285005
-284338
-285005
-285672
-285005
-284338
-285005
-285672
-285005
-284338
-285005
-285672
-284783
-284116
-284783
-285450
-284783
-284116
-284783
-285227
-284561
-283672
-284338
-285005
-284338
-283672
-284338
-285005
-284338
-283449
-284116
-284783
-284116
-283449
-284116
-284783
-284116
-283449
-283894
-284783
-284116
-283449
-284116
-284783
-284338
-283672
-284116
-284783
-284116
-283672
-284338
-285005
-284338
-283672
-284338
-285227
-284561
-283894
-284561
-285227
-284561
-283894
-284561
-285450
-284783
-283894
-284561
-285227
-284783
-284116
-284561
-285227
-284561
-283672
-284561
-285227
-284561
-284338
-285005
-285672
-285227
-284561
-285227
-286117
-285450
-284783
-285450
-286117
-285450
-284783
-285450
-286339
-285450
-284783
-285450
-286117
-285450
-284783
-285450
-286117
-285672
-284783
-285450
-286117
-285672
-285894
-287006
-286783
-283005
-278782
-276114
-273670
-275003
-280338
-285450
-287228
-286117
-285672
-286783
-287895
-287228
-286339
-286561
-287006
-286339
-285450
-285894
-286561
-285894
-285450
-286117
-286783
-286339
-285450
-286117
-286561
-285894
-285227
-285672
-286561
-285894
-284783
-285450
-286117
-285450
-284561
-285227
-285894
-285227
-284338
-285005
-285672
-285005
-283894
-284338
-284783
-284116
-283227
-283449
-283894
-283227
-282116
-282338
-282783
-282116
-281004
-281449
-282116
-281449
-280782
-281671
-282783
-282338
-282116
-283449
-284561
-284561
-284116
-285227
-286117
-285894
-285450
-286117
-287228
-286561
-285672
-286339
-287228
-286561
-285894
-286339
-287228
-286561
-285672
-286339
-287006
-286561
-285894
-286339
-287006
-286561
-285672
-286117
-287006
-286339
-285672
-286117
-287006
-286339
-285450
-286117
-286783
-286117
-285450
-286117
-287006
-286339
-285672
-286339
-287228
-286783
-286117
-286783
-287672
-287228
-286561
-287228
-288339
-287672
-287228
-287895
-288784
-288339
-287672
-288561
-289451
-289006
-288339
-289006
-289673
-289228
-288339
-289006
-290117
-289673
-289006
-289895
-291006
-290784
-290117
-291006
-292118
-291896
-291229
-291673
-292785
-292340
-291673
-292340
-293229
-292785
-292118
-292785
-293674
-293229
-292562
-293229
-294118
-293451
-292785
-293674
-294340
-293674
-293229
-294563
-295896
-295007
-292340
-289451
-287006
-282783
-281227
-286783
-293674
-295896
-295007
-295674
-296785
-296785
-296341
-297008
-297452
-296341
-295674
-296119
-296563
-295896
-295230
-295674
-296563
-295896
-295230
-295896
-296563
-296119
-295230
-295896
-296563
-295896
-295230
-295896
-296563
-295896
-295007
-295452
-296341
-295674
-294785
-295452
-296119
-295452
-294563
-295007
-295674
-295007
-294118
-294563
-295230
-294340
-293451
-293674
-294340
-293451
-292340
-292785
-293451
-292562
-291673
-292340
-293229
-293007
-292785
-293674
-295007
-294785
-294563
-295452
-296785
-296341
-295674
-296563
-297452
-296785
-296119
-296785
-297452
-296785
-296119
-296785
-297452
-297008
-296119
-296563
-297008
-296341
-295674
-296119
-297008
-296341
-295452
-296119
-296785
-296119
-295230
-295896
-296563
-295674
-294785
-295452
-296119
-295452
-294785
-295230
-296119
-295452
-294563
-295007
-295896
-295230
-294563
-295007
-295896
-295230
-294340
-295007
-295896
-295230
-294563
-295007
-295674
-295230
-294340
-295007
-295674
-295007
-294340
-294785
-295674
-295007
-294340
-294785
-295674
-295007
-294118
-294785
-295452
-294785
-293896
-294340
-295007
-294340
-293007
-293451
-294118
-293451
-292785
-293229
-294118
-293896
-293229
-293896
-294785
-294340
-293674
-294118
-295007
-294340
-293451
-294118
-294785
-294118
-293451
-293896
-294563
-294118
-293229
-293674
-294563
-293674
-293007
-293674
-294340
-293674
-292785
-293229
-294118
-293896
-293229
-292785
-290784
-287228
-283227
-280560
-282783
-287672
-291673
-294118
-294563
-293896
-293451
-293896
-294563
-293674
-292340
-292785
-293229
-292340
-291451
-292118
-292785
-292118
-291229
-291896
-292340
-291673
-290784
-291229
-291896
-291229
-290340
-290784
-291451
-290784
-289895
-290340
-291006
-290340
-289673
-289895
-290784
-290340
-289228
-289451
-290117
-289451
-288561
-289006
-289451
-288561
-287672
-287895
-288339
-287450
-286339
-286339
-286783
-286117
-285005
-285227
-285894
-285450
-284783
-285672
-286783
-286783
-286339
-287450
-288561
-288117
-287672
-288561
-289451
-289006
-288117
-288784
-289451
-288784
-288117
-288561
-289228
-288784
-287895
-288339
-289006
-288561
-287672
-288117
-288784
-288117
-287228
-287672
-288339
-287895
-286783
-287228
-288117
-287450
-286561
-287006
-287672
-287228
-286339
-287006
-287895
-287228
-286339
-287006
-287895
-287228
-286339
-287006
-287672
-287228
-286339
-287006
-287672
-287228
-286339
-287006
-287672
-287006
-286117
-286783
-287672
-287006
-286117
-286783
-287672
-287228
-286339
-286783
-287672
-287228
-286339
-287228
-287895
-287450
-286561
-287228
-287895
-287450
-286561
-287228
-287895
-287450
-286561
-286783
-287450
-286561
-285672
-286339
-287006
-286561
-285894
-286561
-287672
-287228
-286561
-287228
-288117
-287672
-286783
-287228
-287895
-287450
-286561
-287228
-288117
-287450
-286561
-287006
-287895
-287228
-286561
-287006
-287672
-287228
-286339
-287006
-287672
-287006
-286339
-287228
-288339
-287895
-285450
-282560
-280560
-276559
-273892
-278115
-284783
-287672
-287228
-287450
-288784
-288339
-287672
-288117
-288339
-287450
-286561
-287006
-287450
-287006
-286339
-286783
-287450
-287006
-286339
-286783
-287672
-287006
-286117
-286561
-287450
-286783
-285894
-286339
-287006
-286561
-285450
-285894
-286783
-286117
-285450
-285894
-286561
-285894
-285005
-285227
-285894
-285227
-284338
-284561
-285005
-284338
-283227
-283672
-284116
-283227
-282116
-282338
-282783
-282116
-281004
-281671
-282560
-282116
-281671
-282783
-283894
-283894
-283449
-284338
-285450
-285227
-284561
-285450
-286339
-285894
-285005
-285672
-286561
-285894
-285227
-285672
-286561
-286117
-285227
-285672
-286339
-285672
-284783
-285450
-286117
-285672
-284783
-285227
-286117
-285672
-284783
-285227
-285894
-285227
-284561
-285005
-285894
-285450
-284561
-285005
-285894
-285227
-284561
-285005
-285894
-285227
-284561
-285227
-285894
-285450
-284783
-285450
-286117
-285672
-284783
-285227
-286117
-285672
-284783
-285450
-286339
-285894
-285227
-285894
-286783
-286117
-285450
-285894
-286783
-286339
-285672
-286117
-287006
-286561
-285672
-286117
-287006
-286561
-285672
-286117
-287006
-286339
-285450
-285894
-286561
-285894
-285227
-285672
-286561
-286117
-285450
-286117
-287006
-286561
-285894
-286561
-287450
-287006
-286117
-286561
-287450
-287006
-286117
-286783
-287672
-287006
-286117
-286783
-287672
-287006
-286339
-286783
-287450
-287006
-286117
-286561
-287450
-287006
-286339
-287228
-288339
-287006
-283449
-280560
-278337
-274781
-275448
-281449
-287006
-288117
-286783
-287228
-288784
-288339
-287672
-287895
-288117
-287450
-286561
-286783
-287450
-287006
-286117
-286783
-287672
-287228
-286339
-286783
-287450
-287006
-286117
-286561
-287228
-286561
-285672
-286117
-286783
-286339
-285450
-285672
-286561
-285894
-285227
-285450
-286117
-285450
-284561
-285005
-285672
-285005
-283894
-284116
-284783
-283894
-282783
-283005
-283672
-282783
-281893
-282116
-282560
-281893
-281004
-281449
-282560
-282338
-281893
-282783
-283894
-283894
-283672
-284561
-285672
-285450
-284783
-285450
-286339
-285894
-285227
-285672
-286561
-285894
-285005
-285672
-286339
-285894
-285005
-285450
-286117
-285672
-284783
-285227
-286117
-285672
-284783
-285227
-285894
-285450
-284338
-284783
-285672
-285227
-284338
-285005
-285894
-285227
-284338
-285005
-285894
-285227
-284338
-284783
-285672
-285227
-284338
-284783
-285672
-285227
-284561
-285005
-285894
-285227
-284561
-285005
-285894
-285450
-284783
-285227
-285894
-285672
-284783
-285227
-286117
-285672
-284783
-285450
-286339
-285894
-285227
-285672
-286561
-285894
-285227
-285672
-286339
-285894
-285005
-285672
-286339
-285672
-284783
-285005
-285672
-285227
-284561
-285005
-285894
-285894
-285227
-285672
-286783
-286339
-285450
-286117
-286783
-286561
-285672
-286117
-287006
-286783
-285894
-286339
-287228
-286561
-285672
-286339
-287228
-286783
-285894
-286339
-287228
-286561
-285672
-286117
-287228
-287228
-286783
-286339
-284561
-280782
-277004
-274336
-276559
-281893
-285672
-287450
-288117
-287450
-287006
-287895
-288784
-288117
-286783
-287006
-287672
-287006
-286117
-286561
-287228
-286783
-285894
-286561
-287450
-286783
-285894
-286117
-287006
-286339
-285450
-285894
-286783
-286117
-285227
-285450
-286339
-285894
-285005
-285227
-286117
-285450
-284561
-285005
-285672
-285227
-284116
-284338
-285005
-284338
-283005
-283227
-283672
-283005
-281893
-282116
-282560
-281893
-280782
-281004
-281671
-281449
-280560
-281227
-282560
-282560
-282116
-283005
-284338
-284338
-283894
-284561
-285450
-285227
-284561
-285005
-285894
-285450
-284783
-285227
-285894
-285672
-284561
-285005
-285894
-285450
-284338
-284783
-285672
-285227
-284338
-284783
-285672
-285005
-284116
-284561
-285450
-284783
-283894
-284338
-285227
-284783
-284116
-284338
-285227
-284783
-283894
-284338
-285227
-285005
-284116
-284338
-285227
-284783
-283894
-284561
-285450
-285005
-284116
-284783
-285672
-285227
-284561
-285005
-285894
-285450
-284561
-285227
-286117
-285894
-284783
-285450
-286339
-285894
-285005
-285450
-286117
-285672
-284561
-285227
-286339
-285894
-285005
-285672
-287006
-286561
-285894
-286561
-287672
-287228
-286339
-286783
-287672
-287228
-286339
-286783
-287672
-287228
-286561
-287006
-287672
-287228
-286339
-287006
-287895
-287450
-286561
-287006
-287895
-287672
-287006
-288117
-289451
-288339
-285005
-281893
-279448
-275670
-275003
-281227
-287672
-289006
-287895
-288339
-289895
-289673
-289228
-289673
-290117
-289451
-288561
-288784
-289451
-289228
-288117
-288784
-289673
-289451
-288339
-288784
-289895
-289228
-288339
-288784
-289451
-289006
-288117
-288561
-289228
-288784
-287895
-288339
-289228
-288561
-287672
-288117
-289006
-288561
-287450
-287672
-288339
-287895
-287006
-287006
-287672
-287006
-285894
-286339
-287006
-286561
-285227
-285450
-286117
-285672
-284783
-285450
-286561
-286561
-286339
-287228
-288784
-289006
-288561
-289673
-291006
-291006
-290562
-291006
-292118
-291896
-291229
-291673
-292785
-292562
-291896
-292118
-293007
-292785
-292118
-292562
-293451
-293007
-292118
-292562
-293451
-292785
-292118
-292562
-293674
-293229
-292562
-292785
-293674
-293451
-292562
-293007
-294118
-293674
-293007
-293451
-294563
-294118
-293229
-293896
-294785
-294563
-293674
-294118
-295230
-295007
-294118
-294563
-295674
-295452
-294785
-295230
-296119
-295674
-295007
-295452
-296341
-295674
-294785
-295230
-296119
-295674
-295007
-295674
-296785
-296563
-295896
-296563
-297674
-297452
-297008
-297452
-298341
-298119
-297230
-297897
-298786
-298341
-297674
-298119
-299008
-298786
-297897
-298119
-299008
-298786
-297897
-298341
-299230
-299008
-298119
-298564
-299675
-299453
-299008
-298786
-296785
-293229
-289228
-286117
-287895
-293229
-297674
-300119
-300564
-300119
-299453
-300119
-301009
-300342
-299008
-299008
-299675
-299008
-298119
-298341
-299230
-299008
-297897
-298341
-299008
-298564
-297674
-297897
-298786
-298341
-297452
-297674
-298564
-297897
-296785
-297230
-297897
-297452
-296563
-296785
-297674
-297230
-296119
-296341
-297008
-296341
-295452
-295674
-296341
-295674
-294563
-294563
-295230
-294563
-293451
-293674
-294118
-293451
-292118
-292340
-293229
-292785
-292118
-292785
-294118
-294118
-293674
-294563
-295896
-295674
-295007
-295674
-296785
-296563
-295674
-296341
-297008
-296563
-295674
-295896
-296785
-296341
-295452
-295674
-296341
-295896
-295007
-295230
-295896
-295452
-294563
-294785
-295674
-295230
-294118
-294340
-295230
-294785
-293896
-294118
-295007
-294563
-293896
-294118
-295007
-294563
-293451
-293896
-294785
-294340
-293451
-293674
-294563
-294340
-293229
-293674
-294563
-294118
-293229
-293451
-294118
-293896
-292785
-293229
-294118
-293674
-292562
-293007
-293896
-293451
-292562
-293007
-293896
-293451
-292562
-293007
-293896
-293451
-292562
-292785
-293674
-293451
-292340
-292340
-292785
-292340
-291229
-291451
-292340
-291896
-291229
-291673
-292785
-292340
-291673
-291896
-293007
-292785
-291896
-292118
-293007
-292562
-291673
-291896
-292785
-292340
-291229
-291451
-292562
-292118
-291006
-291451
-292340
-291896
-290784
-291006
-291896
-291451
-290562
-291006
-292118
-291673
-288784
-285894
-283894
-280115
-277448
-281671
-288339
-291451
-290784
-290562
-292118
-291673
-290784
-291006
-291229
-290562
-289451
-289451
-290340
-289895
-288784
-289006
-289895
-289451
-288561
-288784
-289673
-289006
-288117
-288339
-289006
-288561
-287450
-287672
-288561
-287895
-287006
-287228
-288117
-287672
-286561
-287006
-287672
-287228
-286339
-286339
-287228
-286561
-285450
-285672
-286339
-285672
-284338
-284338
-285005
-284338
-283005
-283005
-283672
-283227
-282116
-282560
-283449
-283227
-282560
-283449
-284783
-285005
-284561
-285227
-286339
-286339
-285672
-286117
-287006
-286783
-285894
-286117
-287006
-286561
-285672
-285894
-287006
-286783
-285894
-285894
-287006
-286561
-285450
-285672
-286783
-286339
-285450
-285672
-286339
-286117
-285227
-285227
-286117
-285894
-285005
-285227
-286117
-285894
-285005
-285450
-286339
-285894
-285005
-285450
-286339
-286117
-285227
-285450
-286561
-286339
-285450
-285672
-286783
-286561
-285672
-285894
-286783
-286561
-285672
-285894
-286783
-286783
-285894
-286117
-287006
-286783
-285894
-286117
-287228
-287006
-286117
-286339
-287228
-287006
-285894
-286117
-287228
-286783
-285450
-285672
-286561
-286117
-285227
-285672
-286561
-286339
-285672
-286339
-287228
-287006
-286339
-286783
-287672
-287450
-286339
-286561
-287672
-287228
-286339
-286561
-287672
-287228
-286339
-286339
-287450
-287228
-286117
-286339
-287228
-287006
-285894
-286117
-287006
-286783
-286339
-287006
-287450
-284783
-280338
-277893
-275225
-275003
-279226
-284561
-287895
-287450
-286339
-287006
-288117
-287895
-286783
-286561
-287228
-286783
-285672
-285672
-286783
-286561
-285672
-285894
-286783
-286561
-285450
-285450
-286561
-286117
-285005
-285227
-286117
-285894
-284783
-285005
-285894
-285450
-284338
-284561
-285450
-285005
-284116
-284116
-285005
-284783
-283672
-283672
-284338
-283894
-282783
-282783
-283449
-283005
-281671
-281893
-282338
-281893
-280782
-280782
-281671
-281227
-280338
-280782
-282116
-282116
-281449
-282338
-283672
-283672
-283227
-283672
-284783
-284783
-284116
-284561
-285450
-285227
-284338
-284561
-285450
-285227
-284338
-284561
-285450
-285005
-284116
-284338
-285005
-284783
-283894
-284116
-285005
-284561
-283672
-284116
-285005
-284561
-283672
-283894
-284783
-284561
-283672
-283894
-285005
-284783
-283672
-284116
-285005
-284783
-283894
-284116
-285005
-284783
-283894
-284116
-285227
-285005
-284116
-284338
-285450
-285227
-284116
-284338
-285450
-285450
-284338
-284783
-285672
-285672
-284783
-285227
-286117
-285894
-285005
-285227
-286117
-286117
-285005
-285450
-286339
-286117
-285227
-285450
-286561
-286339
-285227
-285450
-286561
-286117
-285005
-285450
-286117
-285894
-285005
-285227
-286117
-285894
-285005
-285894
-286783
-286339
-285450
-285672
-286783
-286561
-285672
-285894
-286783
-286561
-285672
-285894
-287006
-286783
-285672
-285894
-286783
-286783
-285672
-285894
-287006
-286561
-285672
-285894
-286783
-286561
-285450
-285894
-287228
-287450
-285672
-283227
-280782
-277448
-273447
-274559
-281004
-285672
-286561
-286561
-287450
-287672
-286783
-287006
-287672
-287006
-285672
-285672
-286561
-286117
-285227
-285450
-286339
-286117
-285450
-285672
-286561
-286339
-285227
-285450
-286339
-286117
-285227
-285227
-286117
-285672
-284783
-285005
-285894
-285672
-284783
-284783
-285894
-285672
-284561
-284561
-285450
-285005
-283672
-283894
-284561
-284116
-282783
-282783
-283672
-283005
-281893
-281893
-282560
-281893
-280782
-280782
-281893
-281671
-281004
-281671
-283005
-283227
-282783
-283449
-284783
-285005
-284116
-284561
-285672
-285450
-284561
-284783
-285894
-285672
-284561
-285005
-285894
-285672
-284561
-285005
-285894
-285450
-284561
-284561
-285672
-285450
-284116
-284561
-285450
-285005
-284116
-284338
-285227
-285005
-284116
-284338
-285450
-285227
-284116
-284561
-285450
-285227
-284116
-284338
-285450
-285227
-284338
-284561
-285450
-285227
-284338
-284783
-285672
-285672
-284561
-284783
-285894
-285672
-284783
-285005
-285894
-285672
-284783
-285227
-286339
-286117
-285227
-285450
-286339
-286117
-285227
-285672
-286561
-286339
-285450
-285894
-286783
-286561
-285672
-285894
-286783
-286561
-285672
-285894
-286783
-286339
-285450
-285894
-286561
-286117
-285227
-285450
-286561
-286561
-285672
-286339
-287228
-287228
-286339
-286783
-287895
-287895
-286783
-287006
-287895
-287672
-286783
-287006
-287895
-287672
-286783
-287006
-287895
-287672
-286561
-287006
-287895
-287672
-286561
-286783
-287672
-287450
-286561
-287006
-288561
-288339
-285450
-282116
-279893
-276337
-273892
-278337
-285005
-287895
-287228
-287006
-288339
-288561
-287672
-288117
-288784
-287895
-286561
-286783
-287450
-287228
-286339
-286561
-287672
-287450
-286339
-286561
-287450
-287228
-286117
-286339
-287228
-287006
-285894
-286117
-286783
-286561
-285450
-285450
-286339
-286117
-285227
-285227
-286117
-285672
-284561
-284561
-285450
-285005
-283894
-283672
-284338
-283894
-282783
-282783
-283449
-282783
-281671
-281449
-282338
-281893
-280560
-280782
-281893
-281893
-281449
-281671
-283227
-283672
-283227
-283894
-285227
-285227
-284561
-285227
-286339
-286117
-285450
-285672
-286561
-286561
-285672
-285672
-286561
-286339
-285450
-285450
-286561
-286117
-285227
-285450
-286339
-286117
-285227
-285227
-286339
-285894
-285005
-285005
-286117
-285672
-284561
-285005
-285894
-285672
-284783
-285005
-285894
-285672
-284783
-284783
-285894
-285894
-284783
-285227
-286339
-286117
-285227
-285450
-286561
-286561
-285450
-285672
-286783
-286561
-285672
-285894
-287006
-287006
-285894
-286339
-287228
-287228
-286339
-286561
-287450
-287228
-286339
-286339
-287228
-286783
-285894
-286117
-287450
-287228
-286561
-287006
-288117
-288117
-287450
-287672
-288784
-288561
-287450
-287672
-288561
-288784
-287895
-287895
-289006
-288784
-287895
-288117
-289006
-288784
-288117
-288117
-289228
-289006
-288117
-288339
-289451
-289228
-288784
-289895
-291229
-289451
-285227
-281893
-279226
-276781
-279004
-285450
-290562
-290784
-289228
-289895
-291451
-291673
-290784
-290784
-291451
-291229
-290117
-290117
-291006
-291006
-290117
-290117
-291006
-290784
-289895
-290340
-291229
-291229
-290117
-290117
-291229
-291229
-290117
-290340
-291229
-291006
-290117
-290340
-291229
-291229
-290340
-290562
-291673
-291451
-290340
-290562
-291451
-291229
-290117
-290117
-291006
-290562
-289451
-289673
-290340
-290117
-289006
-289006
-289895
-289673
-288784
-289451
-290784
-291006
-290562
-291451
-293007
-293451
-293007
-293674
-295007
-295230
-294563
-295007
-296119
-296119
-295452
-295674
-296563
-296563
-295674
-295896
-297008
-296785
-295896
-296119
-297230
-297008
-296119
-296341
-297230
-297230
-296119
-296341
-297452
-297230
-296341
-296341
-297452
-297452
-296341
-296563
-297674
-297452
-296563
-296563
-297452
-297452
-296563
-296785
-297897
-297674
-297008
-297008
-298119
-298119
-297230
-297452
-298564
-298564
-297674
-297674
-298786
-298786
-297674
-298119
-299008
-298786
-297897
-297897
-299008
-298564
-297230
-297452
-298119
-297897
-297230
-297452
-298786
-299008
-298119
-298341
-299453
-299453
-298564
-298786
-299897
-299675
-298786
-298786
-299897
-299675
-298786
-298786
-299897
-299675
-298564
-298564
-299675
-299453
-298564
-298786
-299675
-299453
-298119
-298341
-299453
-299675
-298786
-297897
-295896
-292785
-288339
-285227
-288117
-293674
-297452
-299008
-299453
-299453
-298786
-298786
-299897
-299008
-297674
-297674
-298341
-298119
-296785
-297008
-297897
-297674
-296563
-296563
-297674
-297452
-296341
-296341
-297008
-297008
-295896
-295896
-296785
-296563
-295452
-295452
-296341
-295896
-295007
-295007
-295896
-295452
-294340
-294563
-295230
-295007
-293896
-293674
-294563
-294340
-293007
-292562
-293229
-292785
-291673
-291229
-291896
-291673
-290340
-290117
-291006
-291006
-290117
-290784
-292118
-292340
-291673
-292118
-293674
-293674
-293007
-293451
-294563
-294563
-293451
-293674
-294563
-294563
-293451
-293451
-294340
-294118
-293007
-293007
-294118
-293674
-292562
-292785
-293451
-293229
-292118
-292118
-293229
-293007
-291673
-291673
-292562
-292340
-291229
-291451
-292340
-292118
-291006
-291006
-292118
-291896
-291006
-291006
-292118
-291896
-290784
-291006
-291896
-291896
-290784
-291006
-291896
-291896
-291006
-291006
-292118
-291673
-290784
-290784
-291896
-291673
-290784
-290784
-291896
-291673
-290784
-291006
-291896
-291896
-290784
-291006
-291896
-291896
-290784
-291006
-291896
-291673
-290784
-290784
-291451
-291229
-290340
-290117
-290784
-290562
-289228
-289228
-290117
-289895
-289228
-289451
-290340
-290562
-289451
-289673
-290784
-290784
-289673
-289673
-290784
-290562
-289673
-289673
-290784
-290562
-289451
-289451
-290340
-290117
-289228
-289228
-290117
-289895
-288784
-288784
-289673
-289451
-288561
-289006
-290340
-289895
-286783
-283449
-281449
-277893
-276114
-280782
-287228
-289895
-289006
-288784
-290117
-290340
-289228
-289228
-289673
-289228
-287895
-287895
-288561
-288339
-287450
-287450
-288339
-288117
-287006
-287228
-287895
-287672
-286783
-286783
-287672
-287450
-286339
-286339
-287228
-287006
-285894
-285894
-286783
-286561
-285672
-285672
-286561
-286117
-285005
-285005
-285672
-285450
-284338
-284116
-284783
-284338
-283227
-283005
-283672
-283227
-282116
-281671
-282338
-282116
-281004
-281227
-282116
-282338
-281671
-282338
-283672
-283894
-283449
-283894
-285227
-285450
-284561
-284783
-285894
-285894
-285005
-285005
-286117
-285894
-284783
-285005
-285894
-285894
-284783
-284783
-285894
-285672
-284561
-284561
-285450
-285227
-284338
-284338
-285227
-285227
-284116
-284116
-285227
-285005
-284116
-284116
-285227
-285005
-284116
-284116
-285005
-285005
-284116
-284116
-285005
-285005
-283894
-284116
-285005
-284783
-283894
-284116
-285005
-285005
-284116
-284116
-285005
-285005
-284116
-284116
-285227
-285227
-284338
-284338
-285450
-285450
-284561
-284783
-285672
-285450
-284561
-284783
-285672
-285672
-284783
-284783
-285672
-285672
-284783
-284783
-285894
-285894
-284783
-284561
-285672
-285450
-284338
-284116
-285005
-284783
-283672
-283894
-285005
-285005
-284116
-284338
-285672
-285672
-284783
-285005
-286117
-285894
-284783
-284783
-285894
-285894
-284783
-285005
-285894
-285894
-284783
-284783
-285894
-285672
-284783
-284783
-285894
-285894
-285005
-284783
-285672
-285672
-284561
-285005
-286561
-286117
-282783
-279448
-277448
-273892
-272558
-277670
-284116
-286561
-285450
-285450
-286783
-287006
-286117
-286117
-286339
-286117
-285005
-284783
-285672
-285672
-284783
-284783
-285672
-285672
-284783
-284783
-285894
-285672
-284561
-284783
-285672
-285450
-284561
-284561
-285450
-285227
-284116
-284338
-285227
-285005
-283894
-283894
-285005
-284783
-283672
-283672
-284338
-284116
-283005
-282783
-283449
-283227
-281893
-281893
-282560
-282116
-280782
-280782
-281449
-281227
-279893
-280115
-281227
-281227
-280560
-281227
-282560
-283005
-282560
-282783
-284116
-284338
-283672
-283894
-285005
-285005
-284116
-284116
-285227
-285005
-284116
-284116
-285005
-285005
-283894
-284116
-284783
-284783
-283894
-283894
-285005
-284783
-283672
-283672
-284783
-284561
-283672
-283672
-284561
-284561
-283672
-283894
-284783
-284783
-283672
-283672
-285005
-284783
-283672
-283894
-284783
-284783
-283894
-284116
-285005
-285005
-284116
-284116
-285005
-285005
-283894
-284116
-285227
-285005
-284116
-284116
-285005
-285227
-284338
-284338
-285227
-285227
-284338
-284561
-285450
-285450
-284338
-284561
-285672
-285672
-284783
-284783
-285672
-285672
-284783
-284783
-285672
-285672
-284783
-284783
-285894
-285672
-284783
-284783
-285672
-285450
-284561
-284338
-285005
-284783
-283672
-283894
-285005
-285005
-284338
-284338
-285450
-285450
-284561
-284783
-285894
-285672
-284561
-284561
-285672
-285672
-284561
-284561
-285450
-285450
-284561
-284561
-285672
-285450
-284561
-284561
-285450
-285450
-284338
-284338
-285450
-285227
-284338
-284338
-285894
-286339
-284783
-282116
-279671
-276781
-272336
-272780
-279226
-284338
-285450
-285227
-286117
-286561
-285894
-285894
-286561
-286117
-285005
-284783
-285450
-285450
-284338
-284561
-285450
-285450
-284561
-284561
-285450
-285450
-284338
-284338
-285227
-285227
-284116
-283894
-285005
-284783
-283672
-283672
-284561
-284561
-283672
-283449
-284338
-284338
-283227
-283227
-284116
-283894
-282560
-282338
-283005
-282783
-281671
-281449
-282116
-281893
-280560
-280338
-281004
-280560
-279448
-279448
-280338
-280338
-279671
-280338
-281671
-282116
-281449
-281893
-283227
-283672
-283005
-283227
-284561
-284783
-283672
-283672
-284783
-284783
-283894
-283894
-284783
-284783
-283894
-283672
-284561
-284783
-283672
-283449
-284338
-284561
-283449
-283449
-284338
-284338
-283227
-283227
-284116
-284116
-283227
-283227
-284338
-284338
-283449
-283449
-284338
-284338
-283449
-283227
-284338
-284338
-283227
-283449
-284561
-284561
-283449
-283449
-284561
-284338
-283449
-283449
-284561
-284561
-283672
-283672
-284561
-284783
-283672
-283672
-284783
-284783
-283894
-283894
-285005
-285005
-284116
-284116
-285227
-285227
-284338
-284338
-285450
-285450
-284561
-284561
-285450
-285450
-284561
-284338
-285450
-285227
-284116
-283894
-284561
-284561
-283672
-283449
-284561
-284783
-283894
-284116
-285450
-285450
-284561
-285005
-285894
-285894
-285005
